'Id: "" Comment: "" Operator: "Administrator" Anode: "Cu" Scantype: "Locked Coupled" TimePerStep: "1200.99" 
10 6.15492223924151
10.0284339003265 6.1790689850394
10.056867800653 6.14326518954598
10.0853017009795 6.08664523388196
10.113735601306 6.02835998540429
10.1421695016325 6.17324046019163
10.1706034019589 6.03835174228618
10.1990373022854 6.06333113449089
10.2274712026119 6.04667820635442
10.2559051029384 6.02086616774288
10.2843390032649 6.13327343266409
10.3127729035914 6.11162462608667
10.3412068039179 6.26233362572178
10.3696407042444 6.29563948199473
10.3980746045709 6.24817863680578
10.4265085048974 6.32145152060627
10.4549424052238 6.21570542693965
10.4833763055503 6.2664968577559
10.5118102058768 6.23901952633071
10.5402441062033 6.22153395178742
10.5686780065298 6.39722234362724
10.5971119068563 6.48298492353009
10.6255458071828 6.41803850379783
10.6539797075093 6.33227592389498
10.6824136078358 6.41554056457736
10.7108475081623 6.46799728820726
10.7392814084888 6.40554880769547
10.7677153088152 6.41137733254324
10.7961492091417 6.38056941549076
10.8245831094682 6.53044576871904
10.8530170097947 6.60122071329907
10.8814509101212 6.43385878552748
10.9098848104477 6.55792310014423
10.9383187107742 6.61371040940142
10.9667526111007 6.61953893424919
10.9951865114272 6.4729931666482
11.0236204117537 6.61704099502872
11.0520543120801 6.54460075763505
11.0804882124066 6.57207808906023
11.1089221127331 6.59206160282401
11.1373560130596 6.69364446445651
11.1657899133861 6.64202038723343
11.1942238137126 6.80105585093678
11.2226577140391 6.64868155848802
11.2510916143656 6.67116301147227
11.2795255146921 6.70530151415204
11.3079594150186 6.76192146981606
11.336393315345 6.73277884557723
11.3648272156715 6.86433697785539
11.393261115998 6.86433697785539
11.4216950163245 6.73610943120452
11.450128916651 6.83186376798926
11.4785628169775 6.79439467968219
11.506996717304 6.94676897213094
11.5354306176305 6.9242875191467
11.563864517957 6.93011604399447
11.5922984182835 6.94427103291047
11.62073231861 6.98507070684484
11.6491662189364 7.16075909868466
11.6776001192629 7.07749445800228
11.7060340195894 7.03919272328838
11.7344679199159 7.05084977298392
11.7629018202424 7.08665356847734
11.7913357205689 7.20655465105997
11.8197696208954 7.12495530319124
11.8482035212219 7.1482694025823
11.8766374215484 7.22820345763739
11.9050713218749 7.23819521451927
11.9335052222013 7.33478219771083
11.9619391225278 7.32145985520165
11.9903730228543 7.34560660099954
12.0188069231808 7.25401549624892
12.0472408235073 7.4105530207318
12.0756747238338 7.20239141902585
12.1041086241603 7.40389184947721
12.1325425244868 7.32728838004942
12.1609764248133 7.47883002609135
12.1894103251398 7.47799737968453
12.2178442254663 7.28981929174235
12.2462781257927 7.64952253949023
12.2747120261192 7.480495318905
12.3031459264457 7.50047883266877
12.3315798267722 7.59706581586033
12.3600137270987 7.60206169430127
12.3884476274252 7.51879705361889
12.4168815277517 7.53128674972125
12.4453154280782 7.50714000392336
12.4737493284047 7.52379293205983
12.5021832287312 7.67117134606765
12.5306171290576 7.57458436287609
12.5590510293841 7.73778305861355
12.5874849297106 7.64452666104928
12.6159188300371 7.92762643936938
12.6443527303636 7.79773359990486
12.6727866306901 7.63703284338787
12.7012205310166 7.76026451159779
12.7296544313431 7.8901573510623
12.7580883316696 7.71530160562931
12.7865222319961 8.01755225130635
12.8149561323225 7.88599411902819
12.843390032649 7.77358685410697
12.8718239329755 7.95843435642186
12.900257833302 7.92346320733526
12.9286917336285 7.86684325167124
12.957125633955 7.9251285001489
12.9855595342815 7.76276245081826
13.013993434608 7.95676906360821
13.0424273349345 7.95760171001503
13.070861235261 7.8760023621463
13.0992951355875 7.86684325167124
13.1277290359139 7.89182264387595
13.1561629362404 7.88932470465548
13.1845968365669 7.83103945617782
13.2130307368934 7.91763468248749
13.2414646372199 7.89931646153737
13.2698985375464 7.76442774363191
13.2983324378729 7.9076429256056
13.3267663381994 7.74028099783402
13.3552002385259 7.8968185223169
13.3836341388524 7.99423815191528
13.4120680391788 8.05668663242706
13.4405019395053 7.92179791452161
13.4689358398318 7.99257285910163
13.4973697401583 7.81521917444816
13.5258036404848 7.99923403035622
13.5542375408113 8.04586222913836
13.5826714411378 8.03087459381553
13.6111053414643 8.06334780368165
13.6395392417908 7.98424639503339
13.6679731421173 8.11247394168426
13.6964070424438 8.07000897493625
13.7248409427702 8.18491417907793
13.7532748430967 8.14494715155039
13.7817087434232 8.18907741111205
13.8101426437497 8.02504606896776
13.8385765440762 7.99007491988116
13.8670104444027 8.19407328955299
13.8954443447292 8.15493890843227
13.9238782450557 8.14827773717768
13.9523121453822 8.23487296348736
13.9807460457087 8.33229259308574
14.0091799460351 8.08832719588637
14.0376138463616 8.22654649941912
14.0660477466881 8.1524409692118
14.0944816470146 8.22904443863959
14.1229155473411 8.10831070965014
14.1513494476676 8.23320767067371
14.1797833479941 8.27317469820125
14.2082172483206 8.27400734460808
14.2366511486471 8.32812936105162
14.2650850489736 8.12413099137979
14.2935189493001 8.18408153267111
14.3219528496265 8.01422166567905
14.350386749953 7.9775852237788
14.3788206502795 8.14411450514356
14.407254550606 8.12329834497297
14.4356884509325 8.04669487554518
14.464122351259 8.07000897493625
14.4925562515855 8.06667838930895
14.520990151912 8.04586222913836
14.5494240522385 7.9984013839494
14.577857952565 8.01838489771317
14.6062918528914 8.06334780368165
14.6347257532179 8.0300419474087
14.6631596535444 8.05502133961342
14.6915935538709 8.21822003535088
14.7200274541974 8.20323240002805
14.7484613545239 8.1349553946685
14.7768952548504 8.09915159917508
14.8053291551769 8.25485647725113
14.8337630555034 8.19990181440076
14.8621969558299 8.15493890843227
14.8906308561563 8.05335604679977
14.9190647564828 8.10081689198873
14.9474986568093 8.18075094704381
14.9759325571358 8.22654649941912
15.0043664574623 8.06667838930895
15.0328003577888 8.14827773717768
15.0612342581153 8.00672784801764
15.0896681584418 8.04169899710424
15.1181020587683 8.07000897493625
15.1465359590948 8.17492242219604
15.1749698594213 8.10164953839555
15.2034037597477 8.14494715155039
15.2318376600742 8.0300419474087
15.2602715604007 8.00839314083128
15.2887054607272 8.1208004057525
15.3171393610537 8.40223489125894
15.3455732613802 8.13245745544803
15.3740071617067 8.10914335605696
15.4024410620332 8.33312523949257
15.4308749623597 8.16243272609369
15.4593088626862 8.12496363778662
15.4877427630126 8.37475755983376
15.5161766633391 8.17492242219604
15.5446105636656 8.38225137749517
15.5730444639921 8.18241623985746
15.6014783643186 8.36060257091775
15.6299122646451 8.20739563206217
15.6583461649716 8.28982762633773
15.6867800652981 8.33395788589939
15.7152139656246 8.35810463169728
15.7436478659511 8.34561493559492
15.7720817662776 8.31064378650832
15.800515666604 8.13995127310944
15.8289495669305 8.27317469820125
15.857383467257 8.27650528382855
15.8858173675835 8.23570560989418
15.91425126791 8.34894552122222
15.9426851682365 8.21239151050312
15.971119068563 8.2257138530123
15.9995529688895 8.30897849369468
16.027986869216 8.42055311220906
16.0564207695425 8.26901146616713
16.0848546698689 8.40889606251353
16.1132885701954 8.46468337177073
16.1417224705219 8.44053662597284
16.1701563708484 8.47300983583896
16.1985902711749 8.4813362999072
16.2270241715014 8.38558196312247
16.2554580718279 8.53629096275757
16.2838919721544 8.44136927237966
16.3123258724809 8.45635690770249
16.3407597728074 8.50131981367097
16.3691936731339 8.52463391306204
16.3976275734603 8.52130332743474
16.4260614737868 8.32479877542433
16.4544953741133 8.54961330526675
16.4829292744398 8.2431994275556
16.5113631747663 8.45718955410931
16.5397970750928 8.48300159272085
16.5682309754193 8.53795625557122
16.5966648757458 8.48883011756862
16.6250987760723 8.27983586945584
16.6535326763988 8.39890430563165
16.6819665767252 8.53129508431663
16.7104004770517 8.42638163705683
16.7388343773782 8.32896200745845
16.7672682777047 8.39807165922482
16.7957021780312 8.48383423912767
16.8241360783577 8.54378478041899
16.8525699786842 8.49382599600956
16.8810038790107 8.46468337177073
16.9094377793372 8.411394001734
16.9378716796637 8.40723076969988
16.9663055799901 8.44719779722743
16.9947394803166 8.43637339393872
17.0231733806431 8.46052013973661
17.0516072809696 8.44386721160013
17.0800411812961 8.54545007323263
17.1084750816226 8.42055311220906
17.1369089819491 8.46801395739802
17.1653428822756 8.50298510648462
17.1937767826021 8.5371236091644
17.2222106829286 8.58874768638747
17.2506445832551 8.57625799028511
17.2790784835815 8.35061081403587
17.307512383908 8.40306753766576
17.3359462842345 8.65702469174702
17.364380184561 8.50548304570509
17.3928140848875 8.43637339393872
17.421247985214 8.66784909503573
17.4496818855405 8.55044595167358
17.478115785867 8.45552426129566
17.5065496861935 8.59291091842159
17.53498358652 8.57126211184417
17.5634174868464 8.79690928809342
17.5918513871729 8.55877241574181
17.6202852874994 8.5196380346211
17.6487191878259 8.50048716726415
17.6771530881524 8.55377653730087
17.7055869884789 8.50298510648462
17.7340208888054 8.57376005106464
17.7624547891319 8.57459269747147
17.7908886894584 8.51880538821427
17.8193225897849 8.50964627773921
17.8477564901114 8.68699996239268
17.8761903904378 8.53545831635075
17.9046242907643 8.72696698992022
17.9330581910908 8.73529345398846
17.9614920914173 8.80690104497531
17.9899259917438 8.96343856945818
18.0183598920703 8.94595299491488
18.0467937923968 8.77109724948188
18.0752276927233 9.11164962987282
18.1036615930498 9.07751112719304
18.1320954933763 9.21489778431897
18.1605293937027 9.31481535313782
18.1889632940292 9.31814593876512
18.2173971943557 9.62289452366263
18.2458310946822 9.44221025338186
18.2742649950087 9.56544192159179
18.3026988953352 9.6220618772558
18.3311327956617 9.79358703706151
18.3595666959882 10.1299761854183
18.3880005963147 10.1466291135548
18.4164344966412 10.2715260745784
18.4448683969676 10.6287313831058
18.4733022972941 10.9701164099035
18.5017361976206 11.7328205185541
18.5301700979471 12.1324907938296
18.5586039982736 13.7361677733722
18.5870378986001 16.3373551482897
18.6154717989266 19.8461271066452
18.6439056992531 26.5256165821857
18.6723395995796 35.6006297701583
18.7007734999061 45.8788170159912
18.7292074002326 53.1836239430564
18.757641300559 55.435099827108
18.7860752008855 52.2335743928705
18.814509101212 44.5882150854144
18.8429430015385 35.8878927805125
18.871376901865 28.5206373729355
18.8998108021915 22.6762922434393
18.928244702518 18.5313784302704
18.9566786028445 15.542177829773
18.985112503171 13.4763820944432
19.0135464034975 12.3481462131969
19.0419803038239 11.6195806072261
19.0704142041504 11.1075030670295
19.0988481044769 10.7378080623997
19.1272820048034 10.4455491736045
19.1557159051299 10.1716085057595
19.1841498054564 10.0666950584997
19.2125837057829 9.95178985435803
19.2410176061094 9.74945677749984
19.2694515064359 9.68201241854712
19.2978854067624 9.83355406458905
19.3263193070889 9.57876426410097
19.3547532074153 9.54296046860754
19.3831871077418 9.37143530880184
19.4116210080683 9.46968758480705
19.4400549083948 9.33479886690159
19.4684888087213 9.40807175070209
19.4969227090478 9.45886318151834
19.5253566093743 9.29899507140817
19.5537905097008 9.50299344108
19.5822244100273 9.41723086117715
19.6106583103538 9.35977825910631
19.6390922106802 9.33729680612207
19.6675261110067 9.2964971321877
19.6959600113332 9.37143530880184
19.7243939116597 9.29899507140817
19.7528278119862 9.13995960770482
19.7812617123127 9.2964971321877
19.8096956126392 9.18575516008013
19.8381295129657 9.23737923730321
19.8665634132922 9.13579637567071
19.8949973136187 9.20740396665755
19.9234312139452 9.11831080112741
19.9518651142716 9.31897858517194
19.9802990145981 9.2581953974738
20.0087329149246 9.27651361842393
20.0371668152511 9.16244106068907
20.0656007155776 9.10582110502505
20.0940346159041 9.12580461878882
20.1224685162306 9.14911871817989
20.1509024165571 9.18408986726649
20.1793363168836 9.34395797737666
20.2077702172101 9.34146003815618
20.2362041175365 9.28733802171264
20.264638017863 9.31148476751053
20.2930719181895 9.21156719869167
20.321505818516 9.22905277323497
20.3499397188425 9.20657132025073
20.378373619169 9.31564799954465
20.4068075194955 9.36227619832678
20.435241419822 9.2265548340145
20.4636753201485 9.26485656872839
20.492109220475 9.20324073462343
20.5205431208014 9.29816242500135
20.5489770211279 9.25569745825333
20.5774109214544 9.28400743608534
20.6058448217809 9.30232565703547
20.6342787221074 9.12996785082294
20.6627126224339 9.17493075679142
20.6911465227604 9.39141882256561
20.7195804230869 9.41223498273621
20.7480143234134 9.32563975642653
20.7764482237399 9.39391676178608
20.8048821240664 9.34645591659713
20.8333160243928 9.33479886690159
20.8617499247193 9.31897858517194
20.8901838250458 9.34146003815618
20.9186177253723 9.39641470100655
20.9470516256988 9.29483183937405
20.9754855260253 9.35977825910631
21.0039194263518 9.52297695484377
21.0323533266783 9.63621686617181
21.0607872270048 9.47301817043434
21.0892211273313 9.59874777786474
21.1176550276577 9.58542543535556
21.1460889279842 9.56793986081226
21.1745228283107 9.52547489406424
21.2029567286372 9.63538421976499
21.2313906289637 9.50382608748683
21.2598245292902 9.39641470100655
21.2882584296167 9.50549138030047
21.3166923299432 9.58542543535556
21.3451262302697 9.57210309284638
21.3735601305962 9.62789040210357
21.4019940309227 9.60873953474662
21.4304279312491 9.68117977214029
21.4588618315756 9.51964636921648
21.4872957319021 9.45636524229787
21.5157296322286 9.40057793304067
21.5441635325551 9.40390851866797
21.5725974328816 9.40474116507479
21.6010313332081 9.4188961539908
21.6294652335346 9.57127044643955
21.6578991338611 9.38475765131102
21.6863330341876 9.52547489406424
21.714766934514 9.4330511429068
21.7432008348405 9.60124571708521
21.771634735167 9.77110558407726
21.8000686354935 9.87268844570977
21.82850253582 9.90932488761001
21.8569364361465 9.98093247859686
21.885370336473 10.287346356308
21.9138042367995 10.2290611078304
21.942238137126 10.3381377871243
21.9706720374525 10.8252359351162
21.999105937779 11.1632903762867
22.0275398381054 11.7503060930974
22.0559737384319 12.1799516390185
22.0844076387584 12.4222517434042
22.1128415390849 12.6021033672782
22.1412754394114 12.7911141016272
22.1697093397379 13.2049393658186
22.1981432400644 13.4522353486453
22.2265771403909 13.0892015152701
22.2550110407174 12.5787892678871
22.2834449410439 11.9126721424281
22.3118788413703 11.1224907023523
22.3403127416968 10.5254832286596
22.3687466420233 10.1624493952844
22.3971805423498 9.99592011391969
22.4256144426763 9.86019874960741
22.4540483430028 9.66286155119017
22.4824822433293 9.68617565058124
22.5109161436558 9.84437846787776
22.5393500439823 9.86769256726882
22.5677839443088 10.1849308482687
22.5962178446352 10.3739415826177
22.6246517449617 10.5937602340192
22.6530856452882 10.4139086101452
22.6815195456147 10.2607016712897
22.7099534459412 10.1116579644682
22.7383873462677 9.84104788225046
22.7668212465942 9.6745186008857
22.7952551469207 9.54878899345531
22.8236890472472 9.53130341891201
22.8521229475737 9.24986893340557
22.8805568479002 9.49883020904588
22.9089907482266 9.4014105794475
22.9374246485531 9.21573043072579
22.9658585488796 9.32147652439241
22.9942924492061 9.40557381148162
23.0227263495326 9.1915836849279
23.0511602498591 9.27817891123757
23.0795941501856 9.19907750258932
23.1080280505121 9.23737923730321
23.1364619508386 9.16743693913001
23.1648958511651 9.25070157981239
23.1933297514915 9.31481535313782
23.221763651818 9.08916817688857
23.2501975521445 9.32480711001971
23.278631452471 9.18159192804601
23.3070653527975 9.15827782865495
23.335499253124 9.16077576787542
23.3639331534505 9.18492251367331
23.392367053777 9.16910223194366
23.4208009541035 8.99757707213796
23.44923485443 9.11664550831376
23.4776687547565 9.33563151330842
23.5061026550829 9.15328195021401
23.5345365554094 9.16160841428224
23.5629704557359 9.26402392232157
23.5914043560624 9.29483183937405
23.6198382563889 9.12663726519564
23.6482721567154 9.17909398882554
23.6767060570419 9.1740981103846
23.7051399573684 9.1949142705552
23.7335738576949 9.34062739174936
23.7620077580214 9.05336438139515
23.7904416583478 9.15328195021401
23.8188755586743 9.08167435922716
23.8473094590008 9.16826958553683
23.8757433593273 9.16993487835048
23.9041772596538 9.29399919296723
23.9326111599803 9.27318303279663
23.9610450603068 9.31897858517194
23.9894789606333 9.12663726519564
24.0179128609598 9.15577988943448
24.0463467612863 9.3314682812743
24.0747806616127 9.08333965204081
24.1032145619392 9.04420527092009
24.1316484622657 9.22822012682815
24.1600823625922 9.19657956336884
24.1885162629187 8.98009149759466
24.2169501632452 8.98425472962878
24.2453840635717 9.28733802171264
24.2738179638982 9.35394973425854
24.3022518642247 9.21073455228485
24.3306857645512 9.34312533096983
24.3591196648777 9.15744518224813
24.3875535652041 9.25403216543969
24.4159874655306 9.31897858517194
24.4444213658571 9.25653010466016
24.4728552661836 9.12413932597517
24.5012891665101 9.04670321014056
24.5297230668366 9.20074279540296
24.5581569671631 9.16743693913001
24.5865908674896 9.21489778431897
24.6150247678161 9.13662902207753
24.6434586681426 9.10082522658411
24.671892568469 9.34812120941077
24.7003264687955 9.28650537530581
24.728760369122 9.12746991160247
24.7571942694485 9.2232242483872
24.785628169775 9.18408986726649
24.8140620701015 9.23571394448956
24.842495970428 9.21489778431897
24.8709298707545 9.18492251367331
24.899363771081 9.30981947469688
24.9277976714075 9.03171557481773
24.956231571734 9.09999258017728
24.9846654720604 9.08417229844763
25.0130993723869 9.23571394448956
25.0415332727134 8.92763477396476
25.0699671730399 9.03005028200408
25.0984010733664 9.12413932597517
25.1268349736929 9.17160017116413
25.1552688740194 9.00423824339255
25.1837027743459 9.10165787299093
25.2121366746724 9.16910223194366
25.2405705749989 9.09416405532952
25.2690044753253 9.19241633133472
25.2974383756518 9.21739572353944
25.3258722759783 9.12996785082294
25.3543061763048 9.29150125374676
25.3827400766313 9.3489538558176
25.4111739769578 9.31564799954465
25.4396078772843 9.45636524229787
25.4680417776108 9.60124571708521
25.4964756779373 9.66535949041064
25.5249095782638 9.9159860588646
25.5533434785903 9.91348811964413
25.5817773789167 9.5904213137965
25.6102112792432 9.54629105423484
25.6386451795697 9.40390851866797
25.6670790798962 9.21906101635309
25.6955129802227 9.2473709941851
25.7239468805492 9.124971972382
25.7523807808757 9.19824485618249
25.7808146812022 9.25653010466016
25.8092485815287 9.06085819905656
25.8376824818552 9.12413932597517
25.8661163821816 9.16327370709589
25.8945502825081 9.27318303279663
25.9229841828346 9.28733802171264
25.9514180831611 9.16160841428224
25.9798519834876 9.11581286190694
26.0082858838141 9.23737923730321
26.0367197841406 9.16660429272319
26.0651536844671 9.13829431489118
26.0935875847936 9.0375440996655
26.1220214851201 9.26901980076251
26.1504553854465 9.22572218760768
26.178889285773 9.0200585251222
26.2073231860995 9.34062739174936
26.235757086426 9.34728856300395
26.2641909867525 9.40807175070209
26.292624887079 9.46136112073881
26.3210587874055 9.48634051294352
26.349492687732 9.30399094984911
26.3779265880585 9.21489778431897
26.406360488385 9.35894561269948
26.4347943887115 9.23904453011686
26.4632282890379 9.1949142705552
26.4916621893644 9.124971972382
26.5200960896909 9.18575516008013
26.5485299900174 8.950116226949
26.5769638903439 9.08750288407493
26.6053977906704 9.00756882901984
26.6338316909969 9.09083346970222
26.6622655913234 9.03338086763138
26.6906994916499 9.06668672390433
26.7191333919764 9.22488954120085
26.7475672923028 9.23821188371003
26.7760011926293 8.90182273535322
26.8044350929558 9.16244106068907
26.8328689932823 9.2090692594712
26.8613028936088 9.14079225411165
26.8897367939353 9.12330667956835
26.9181706942618 9.21323249150532
26.9466045945883 9.25236687262604
26.9750384949148 9.30898682829006
27.0034723952413 9.02089117152902
27.0319062955678 9.13829431489118
27.0603401958942 9.28484008249217
27.0887740962207 9.12663726519564
27.1172079965472 9.28317478967852
27.1456418968737 9.08333965204081
27.1740757972002 9.08417229844763
27.2025096975267 9.17243281757095
27.2309435978532 9.13163314363659
27.2593774981797 9.34146003815618
27.2878113985062 9.15078401099353
27.3162452988327 8.93429594521935
27.3446791991591 9.15744518224813
27.3731130994856 9.19907750258932
27.4015469998121 9.15494724302765
27.4299809001386 9.22239160198038
27.4584148004651 9.1774286960119
27.4868487007916 9.1424575469253
27.5152826011181 9.15411459662083
27.5437165014446 9.18075928163919
27.5721504017711 9.04503791732691
27.6005843020976 9.33563151330842
27.629018202424 9.20490602743708
27.6574521027505 9.2756809720171
27.685886003077 9.139126961298
27.7143199034035 9.20074279540296
27.74275380373 9.10332316580458
27.7711877040565 9.26319127591475
27.799621604383 9.10665375143187
27.8280555047095 9.11581286190694
27.856489405036 9.2123998450985
27.8849233053625 9.32647240283336
27.913357205689 9.30898682829006
27.9417911060154 9.46469170636611
27.9702250063419 9.64704126946052
27.9986589066684 9.68784094339488
28.0270928069949 9.57460103206685
28.0555267073214 9.89350460588036
28.0839606076479 9.93263898700108
28.1123945079744 10.1391352958934
28.1408284083009 10.4663653337751
28.1692623086274 10.2898442955285
28.1976962089539 10.4097453781111
28.2261301092803 10.4255656598408
28.2545640096068 10.1766043842005
28.2829979099333 10.0358871414472
28.3114318102598 9.92930840137378
28.3398657105863 10.0217321525312
28.3682996109128 9.84521111428458
28.3967335112393 9.59458454583062
28.4251674115658 9.63205363413769
28.4536013118923 9.49466697701176
28.4820352122188 9.56544192159179
28.5104691125453 9.64204539101958
28.5389030128717 9.27817891123757
28.5673369131982 9.328137695647
28.5957708135247 9.46302641355246
28.6242047138512 9.06252349187021
28.6526386141777 9.1949142705552
28.6810725145042 9.28400743608534
28.7095064148307 9.42722261805904
28.7379403151572 9.40057793304067
28.7663742154837 9.28983596093311
28.7948081158102 9.39141882256561
28.8232420161366 9.25153422621921
28.8516759164631 9.12996785082294
28.8801098167896 9.36394149114043
28.9085437171161 9.3456232701903
28.9369776174426 9.26568921513522
28.9654115177691 9.56127868955767
28.9938454180956 9.45803053511152
29.0222793184221 9.3664394303609
29.0507132187486 9.42555732524539
29.0791471190751 9.3314682812743
29.1075810194016 9.29899507140817
29.136014919728 9.42638997165221
29.1644488200545 9.38808823693832
29.192882720381 9.23321600526909
29.2213166207075 9.34479062378348
29.249750521034 9.32314181720606
29.2781844213605 9.13662902207753
29.306618321687 9.45469994948422
29.3350522220135 9.14911871817989
29.36348612234 9.31315006032417
29.3919200226665 9.26485656872839
29.4203539229929 9.13163314363659
29.4487878233194 9.313982706731
29.4772217236459 9.25986069028745
29.5056556239724 9.25070157981239
29.5340895242989 9.42056144680445
29.5625234246254 9.19241633133472
29.5909573249519 9.14079225411165
29.6193912252784 9.20240808821661
29.6478251256049 9.20407338103026
29.6762590259314 9.17826134241872
29.7046929262578 9.28900331452629
29.7331268265843 9.22488954120085
29.7615607269108 9.25236687262604
29.7899946272373 9.36061090551313
29.8184285275638 9.23904453011686
29.8468624278903 9.20490602743708
29.8752963282168 9.33396622049477
29.9037302285433 9.10332316580458
29.9321641288698 9.21489778431897
29.9605980291963 9.24154246933733
29.9890319295228 9.30315830344229
30.0174658298492 9.2232242483872
30.0458997301757 9.30565624266276
30.0743336305022 9.35561502707219
30.1027675308287 9.35478238066536
30.1312014311552 9.2581953974738
30.1596353314817 9.28817066811946
30.1880692318082 9.30315830344229
30.2165031321347 9.27151773998298
30.2449370324612 9.37559854083596
30.2733709327877 9.30732153547641
30.3018048331141 9.29732977859452
30.3302387334406 9.28567272889899
30.3586726337671 9.35728031988584
30.3871065340936 9.39058617615879
30.4155404344201 9.33479886690159
30.4439743347466 9.40390851866797
30.4724082350731 9.42805526446586
30.5008421353996 9.4188961539908
30.5292760357261 9.54212782220072
30.5577099360526 9.34812120941077
30.5861438363791 9.28567272889899
30.6145777367055 9.35561502707219
30.643011637032 9.4155655683635
30.6714455373585 9.42638997165221
30.699879437685 9.29483183937405
30.7283133380115 9.38225971209055
30.756747238338 9.37393324802231
30.7851811386645 9.38225971209055
30.813615038991 9.32147652439241
30.8420489393175 9.44554083900916
30.870482839644 9.49716491623223
30.8989167399704 9.30482359625594
30.9273506402969 9.37892912646326
30.9557845406234 9.38808823693832
30.9842184409499 9.52547489406424
31.0126523412764 9.36893736958137
31.0410862416029 9.44304289978869
31.0695201419294 9.37143530880184
31.0979540422559 9.47301817043434
31.1263879425824 9.36061090551313
31.1548218429089 9.34479062378348
31.1832557432354 9.60124571708521
31.2116896435618 9.38975352975196
31.2401235438883 9.41972880039762
31.2685574442148 9.56544192159179
31.2969913445413 9.58625808176238
31.3254252448678 9.43804702134774
31.3538591451943 9.59458454583062
31.3822930455208 9.51964636921648
31.4107269458473 9.61373541318757
31.4391608461738 9.33812945252889
31.4675947465003 9.61789864522168
31.4960286468267 9.49633226982541
31.5244625471532 9.69783270027677
31.5528964474797 9.52880547969154
31.5813303478062 9.68534300417441
31.6097642481327 9.60207836349203
31.6381981484592 9.60957218115345
31.6666320487857 9.73446914217702
31.6950659491122 9.54046252938707
31.7234998494387 9.53047077250519
31.7519337497652 9.48384257372305
31.7803676500916 9.53213606531883
31.8088015504181 9.40723910429526
31.8372354507446 9.58542543535556
31.8656693510711 9.61456805959439
31.8941032513976 9.7269753245156
31.9225371517241 9.75528530234761
31.9509710520506 9.75445265594079
31.9794049523771 9.71531827482007
32.0078388527036 9.90599430198272
32.0362727530301 9.82939083255493
32.0647066533566 9.78359528017962
32.093140553683 9.79858291550245
32.1215744540095 9.6045763027125
32.150008354336 9.69949799309042
32.1784422546625 9.74612619187255
32.206876154989 9.79525232987515
32.2353100553155 9.59958042427156
32.263743955642 9.77859940173868
32.2921778559685 9.50216079467318
32.320611756295 9.75278736312714
32.3490456566215 9.56211133596449
32.3774795569479 9.53879723657342
32.4059134572744 9.66452684400382
32.4343473576009 9.71698356763372
32.4627812579274 9.488838452164
32.4912151582539 9.55128693267578
32.5196490585804 9.6079068883398
32.5480829589069 9.66785742963111
32.5765168592334 9.55211957908261
32.6049507595599 9.75528530234761
32.6333846598864 9.54795634704849
32.6618185602129 9.65453508712193
32.6902524605393 9.39474940819291
32.7186863608658 9.67535124729253
32.7471202611923 9.6428780374264
32.7755541615188 9.80940731879116
32.8039880618453 9.72281209248148
32.8324219621718 9.55128693267578
32.8608558624983 9.65953096556287
32.8892897628248 9.69783270027677
32.9177236631513 9.69033888261536
32.9461575634778 9.70532651793818
32.9745914638042 9.57876426410097
33.0030253641307 9.76444441282267
33.0314592644572 9.79525232987515
33.0598931647837 9.61123747396709
33.0883270651102 9.66202890478335
33.1167609654367 9.70033063949724
33.1451948657632 9.90349636276225
33.1736287660897 9.87851697055753
33.2020626664162 10.0092424564289
33.2304965667427 9.83854994302999
33.2589304670691 9.92514516933967
33.2873643673956 9.88934137384624
33.3157982677221 10.0317239094131
33.3442321680486 9.99925069954698
33.3726660683751 9.8460437606914
33.4010999687016 10.0283933237858
33.4295338690281 9.89683519150766
33.4579677693546 9.56460927518496
33.4864016696811 9.93596957262838
33.5148355700076 9.83355406458905
33.5432694703341 9.90349636276225
33.5717033706605 9.9018310699486
33.600137270987 9.83355406458905
33.6285711713135 9.87685167774389
33.65700507164 9.93763486544202
33.6854389719665 9.76444441282267
33.713872872293 9.72864061732925
33.7423067726195 9.79941556190927
33.770740672946 9.79525232987515
33.7991745732725 9.72031415326101
33.827608473599 9.86019874960741
33.8560423739254 9.8493743463187
33.8844762742519 9.89516989869401
33.9129101745784 9.8144031972321
33.9413440749049 9.6745186008857
33.9697779752314 9.86519462804835
33.9982118755579 9.74029766702478
34.0266457758844 9.77693410892503
34.0550796762109 9.98176512500369
34.0835135765374 9.99342217469922
34.1119474768639 9.9542877935785
34.1403813771904 10.0775194617884
34.1688152775168 9.78026469455233
34.1972491778433 9.93097369418743
34.2256830781698 9.7969176226888
34.2541169784963 9.92847575496696
34.2825508788228 9.83854994302999
34.3109847791493 9.96427955046038
34.3394186794758 9.80441144035021
34.3678525798023 9.87352109211659
34.3962864801288 9.71448562841324
34.4247203804553 9.77526881611138
34.4531542807817 9.88268020259165
34.4815881811082 10.0025812851743
34.5100220814347 9.88684343462577
34.5384559817612 10.0442136055155
34.5668898820877 9.98842629625828
34.5953237824142 9.91182282683049
34.6237576827407 9.9051616555759
34.6521915830672 9.87601903133706
34.6806254833937 9.93930015825567
34.7090593837202 9.83272141818222
34.7374932840467 9.92597781574649
34.7659271843731 9.89516989869401
34.7943610846996 9.78109734095915
34.8227949850261 9.9401328046625
34.8512288853526 10.0208995061244
34.8796627856791 9.94762662232391
34.9080966860056 9.75611794875443
34.9365305863321 9.84271317506411
34.9649644866586 9.98093247859686
34.9933983869851 9.92930840137378
35.0218322873116 9.97593660015592
35.050266187638 9.79275439065468
35.0787000879645 9.93014104778061
35.107133988291 9.8318887717754
35.1355678886175 9.8701905064893
35.164001788944 10.0317239094131
35.1924356892705 9.91765135167825
35.220869589597 9.97510395374909
35.2493034899235 9.88268020259165
35.27773739025 9.93263898700108
35.3061712905765 9.98176512500369
35.3346051909029 9.97343866093545
35.3630390912294 9.9401328046625
35.3914729915559 9.77193823048409
35.4199068918824 10.0067445172084
35.4483407922089 10.1166538429091
35.4767746925354 10.0333892022268
35.5052085928619 10.0775194617884
35.5336424931884 9.87102315289612
35.5620763935149 9.92681046215331
35.5905102938414 10.0217321525312
35.6189441941679 10.2565384392555
35.6473780944943 10.0483768375496
35.6758119948208 10.1990858371847
35.7042458951473 10.2090775940666
35.7326797954738 10.0525400695837
35.7611136958003 10.1083273788409
35.7895475961268 10.0875112186703
35.8179814964533 10.1482944063684
35.8464153967798 10.1324741246388
35.8748492971063 10.2273958150167
35.9032831974328 10.2515425608146
35.9317170977592 10.0900091578908
35.9601509980857 10.2332243398645
35.9885848984122 10.2007511299983
36.0170187987387 10.3273133838356
36.0454526990652 10.4746917978434
36.0738865993917 10.2798525386466
36.1023204997182 10.5954255268328
36.1307544000447 10.6778575211084
36.1591883003712 10.7811056755545
36.1876222006977 10.9984263877355
36.2160561010242 11.0650381002814
36.2444900013506 11.1183274703182
36.2729239016771 11.1399762768956
36.3013578020036 11.2507182490032
36.3297917023301 11.189935061305
36.3582256026566 11.2615426522919
36.3866595029831 11.3489705250084
36.4150934033096 11.4980142318298
36.4435273036361 11.8085913415751
36.4719612039626 12.0525567387745
36.5003951042891 12.7678000022361
36.5288290046155 13.7203474916425
36.557262904942 15.2449230625369
36.5856968052685 17.7778334320949
36.614130705595 20.9918485624348
36.6425646059215 24.3715603277326
36.670998506248 26.6130444549022
36.6994324065745 27.445690861726
36.727866306901 27.3765812099596
36.7563002072275 25.5830608496612
36.784734107554 23.2566467889955
36.8131680078804 20.4214857737605
36.8416019082069 17.7478581614492
36.8700358085334 15.6362668737441
36.8984697088599 14.1474950983431
36.9269036091864 12.9501495653305
36.9553375095129 12.2823671470578
36.9837714098394 11.7794487173363
37.0122053101659 11.2931832157512
37.0406392104924 11.1799433044231
37.0690731108189 11.0816910284179
37.0975070111454 10.7378080623997
37.1259409114718 10.7419712944338
37.1543748117983 10.5962581732396
37.1828087121248 10.6428863720218
37.2112426124513 10.3572886544812
37.2396765127778 10.504667068489
37.2681104131043 10.5462993888302
37.2965443134308 10.5404708639825
37.3249782137573 10.4838509083184
37.3534121140838 10.4971732508276
37.3818460144103 10.656208714531
37.4102799147367 10.4738591514365
37.4387138150632 10.31565633414
37.4671477153897 10.3897618643473
37.4955816157162 10.4089127317043
37.5240155160427 10.2440487431532
37.5524494163692 10.2665301961374
37.5808833166957 10.3697783505836
37.6093172170222 10.1291435390115
37.6377511173487 10.3414683727516
37.6661850176752 10.2823504778671
37.6946189180017 10.2407181575259
37.7230528183281 10.3664477649563
37.7514867186546 10.1757717377936
37.7799206189811 10.4555409304864
37.8083545193076 10.2282284614235
37.8367884196341 10.3081625164786
37.8652223199606 10.3672804113631
37.8936562202871 10.5304791071006
37.9220901206136 10.8760273659324
37.9505240209401 11.062540161061
37.9789579212666 11.435565751318
38.007391821593 11.9218312529031
38.0358257219195 12.0775361309792
38.064259622246 12.120833744134
38.0926935225725 12.2782039150237
38.121127422899 12.1566375396274
38.1495613232255 12.0542220315881
38.177995223552 11.8618807116118
38.2064291238785 12.1341560866432
38.234863024205 12.5304957762913
38.2632969245315 13.4047745034563
38.291730824858 14.3331752470649
38.3201647251844 14.899374803705
38.3485986255109 15.56132869713
38.3770325258374 15.4597458354974
38.4054664261639 14.9659865162509
38.4339003264904 14.3165223189284
38.4623342268169 13.5330020501072
38.4907681271434 12.6212542346351
38.5192020274699 11.9834470870081
38.5476359277964 11.4538839722682
38.5760698281229 11.1682862547276
38.6045037284493 10.9376432000374
38.6329376287758 10.6129111013761
38.6613715291023 10.5354749855415
38.6898054294288 10.5179894109982
38.7182393297553 10.3872639251269
38.7466732300818 10.637057847174
38.7751071304083 10.4397206487568
38.8035410307348 10.4580388697069
38.8319749310613 10.3189869197673
38.8604088313878 10.1816002626414
38.8888427317142 10.2915095883421
38.9172766320407 10.2157387653212
38.9457105323672 9.91848399808508
38.9741444326937 10.0109077492425
39.0025783330202 10.0367197878541
39.0310122333467 9.86769256726882
39.0594461336732 9.86352933523471
39.0878800339997 9.87268844570977
39.1163139343262 9.69866534668359
39.1447478346527 9.94762662232391
39.1731817349792 9.74029766702478
39.2016156353056 9.9193166444919
39.2300495356321 9.92181458371237
39.2584834359586 9.70865710356548
39.2869173362851 9.73197120295655
39.3153512366116 9.82689289333446
39.3437851369381 9.92014929089872
39.3722190372646 9.68284506495394
39.4006529375911 9.83854994302999
39.4290868379176 9.73946502061796
39.4575207382441 9.77610146251821
39.4859546385705 9.81107261160481
39.514388538897 9.84104788225046
39.5428224392235 9.78026469455233
39.57125633955 9.84770905350505
39.5996902398765 9.8460437606914
39.628124140203 9.72447738529513
39.6565580405295 9.58292749613508
39.684991940856 9.73613443499066
39.7134258411825 9.79525232987515
39.741859741509 9.75112207031349
39.7702936418355 9.84437846787776
39.7987275421619 9.79441968346833
39.8271614424884 9.8318887717754
39.8555953428149 9.82772553974128
39.8840292431414 9.73613443499066
39.9124631434679 9.70033063949724
39.9408970437944 9.67118801525841
39.9693309441209 9.65370244071511
39.9977648444474 9.77693410892503
40.0261987447739 9.67368595447888
40.0546326451004 9.7969176226888
40.0830665454268 9.86436198164153
40.1115004457533 9.7827626337728
40.1399343460798 9.76944029126362
40.1683682464063 9.77776675533185
40.1968021467328 9.75944853438173
40.2252360470593 9.79275439065468
40.2536699473858 9.77443616970456
40.2821038477123 9.7269753245156
40.3105377480388 9.64038009820593
40.3389716483653 9.71531827482007
40.3674055486918 9.8002482083161
40.3958394490182 9.866859920862
40.4242733493447 9.72114679966784
40.4527072496712 9.95178985435803
40.4811411499977 9.87185579930294
40.5095750503242 9.852704931946
40.5380089506507 9.64038009820593
40.5664428509772 9.86103139601423
40.5948767513037 9.73779972780431
40.6233106516302 9.74945677749984
40.6517445519567 9.79941556190927
40.6801784522831 9.80191350112974
40.7086123526096 9.77859940173868
40.7370462529361 9.79775026909562
40.7654801532626 9.7794320481455
40.7939140535891 9.88268020259165
40.8223479539156 9.74945677749984
40.8507818542421 9.75278736312714
40.8792157545686 9.65620037993558
40.9076496548951 9.82106436848669
40.9360835552216 9.74362825265208
40.964517455548 9.76860764485679
40.9929513558745 9.86935786008247
41.021385256201 9.78942380502739
41.0498191565275 9.81856642926622
41.078253056854 9.77859940173868
41.1066869571805 9.73197120295655
41.135120857507 9.8493743463187
41.1635547578335 9.86103139601423
41.19198865816 9.82189701489352
41.2204225584865 9.9509572079512
41.248856458813 9.77693410892503
41.2772903591394 9.78942380502739
41.3057242594659 9.80191350112974
41.3341581597924 9.64704126946052
41.3625920601189 9.91432076605096
41.3910259604454 9.82106436848669
41.4194598607719 9.8701905064893
41.4478937610984 9.7303059101429
41.4763276614249 9.60207836349203
41.5047615617514 9.87435373852341
41.5331954620779 9.71864886044736
41.5616293624043 9.65953096556287
41.5900632627308 9.92514516933967
41.6184971630573 9.85686816398012
41.6469310633838 9.7969176226888
41.6753649637103 9.85187228553917
41.7037988640368 9.65786567274923
41.7322327643633 9.99009158907192
41.7606666646898 9.73113855654972
41.7891005650163 9.82189701489352
41.8175344653428 9.89183931306671
41.8459683656693 9.88268020259165
41.8744022659957 9.88018226337118
41.9028361663222 9.82689289333446
41.9312700666487 9.488838452164
41.9597039669752 9.91515341245778
41.9881378673017 9.96261425764674
42.0165717676282 9.82772553974128
42.0450056679547 9.74113031343161
42.0734395682812 9.84104788225046
42.1018734686077 9.89100666665989
42.1303073689342 9.90016577713495
42.1587412692606 9.71948150685419
42.1871751695871 9.78442792658644
42.2156090699136 9.93513692622155
42.2440429702401 9.78692586580692
42.2724768705666 9.83854994302999
42.3009107708931 9.86519462804835
42.3293446712196 9.71948150685419
42.3577785715461 9.82439495411399
42.3862124718726 9.88934137384624
42.4146463721991 9.80441144035021
42.4430802725255 9.81606849004575
42.471514172852 9.78109734095915
42.4999480731785 9.98759364985145
42.528381973505 9.98842629625828
42.5568158738315 9.94429603669661
42.585249774158 10.0100751028357
42.6136836744845 9.7094897499723
42.642117574811 9.86852521367565
42.6705514751375 9.85353757835282
42.698985375464 9.91515341245778
42.7274192757905 9.87352109211659
42.7558531761169 9.85770081038694
42.7842870764434 10.008409810022
42.8127209767699 10.027560677379
42.8411548770964 10.0092424564289
42.8695887774229 10.0542053623974
42.8980226777494 9.9334716334079
42.9264565780759 10.0741888761611
42.9548904784024 10.0325565558199
42.9833243787289 10.0625318264656
43.0117582790554 10.0150709812766
43.0401921793818 10.0641971192792
43.0686260797083 9.95012456154438
43.0970599800348 10.0217321525312
43.1254938803613 10.0800174010089
43.1539277806878 10.0358871414472
43.1823616810143 10.2207346437621
43.2107955813408 10.1383026494866
43.2392294816673 10.1241476605706
43.2676633819938 10.0633644728724
43.2960972823203 10.1274782461978
43.3245311826468 9.97010807530815
43.3529650829732 10.0725235833475
43.3813989832997 10.089176511484
43.4098328836262 10.1474617599616
43.4382667839527 9.96927542890133
43.4667006842792 10.0758541689748
43.4951345846057 10.1274782461978
43.5235684849322 10.169110566539
43.5520023852587 10.2115755332871
43.5804362855852 10.1274782461978
43.6088701859117 10.1358047102661
43.6373040862381 10.1116579644682
43.6657379865646 10.1041641468068
43.6941718868911 10.084180633043
43.7226057872176 10.126645599791
43.7510396875441 10.3089951628854
43.7794735878706 10.2440487431532
43.8079074881971 10.363117179329
43.8363413885236 10.140800588707
43.8647752888501 10.2507099144078
43.8932091891766 10.3897618643473
43.9216430895031 10.2840157706807
43.9500769898295 10.453042991266
43.978510890156 10.495507958014
44.0069447904825 10.4472144664182
44.035378690809 10.7511304049089
44.0638125911355 10.7378080623997
44.092246491462 10.9309820287828
44.1206803917885 11.1091683598431
44.149114292115 11.4347331049112
44.1775481924415 12.0242467609425
44.205982092768 12.6820374223333
44.2344159930944 13.0192592170969
44.2628498934209 13.8086080107659
44.2912837937474 14.8369263231932
44.3197176940739 16.6096305233211
44.3481515944004 19.459779173879
44.3765854947269 23.7004473238326
44.4050193950534 29.6513711934023
44.4334532953799 36.0286100232657
44.4618871957064 41.5723697998986
44.4903210960329 44.1843815781048
44.5187549963593 44.35340879869
44.5471888966858 42.4291629525203
44.5756227970123 39.746376229734
44.6040566973388 36.1060461391003
44.6324905976653 31.2542155265381
44.6609244979918 26.822038703015
44.6893583983183 22.7420713095784
44.7177922986448 19.3282210416008
44.7462261989713 17.0226231411057
44.7746600992978 14.856909836957
44.8030939996243 13.9001991155165
44.8315278999507 12.9693004326875
44.8599618002772 12.4663820029659
44.8883957006037 11.7369837505882
44.9168296009302 11.7553019715384
44.9452635012567 11.3381461217197
44.9736974015832 11.1882697684914
45.0021313019097 11.0192425479061
45.0305652022362 10.8868517692212
45.0589991025627 10.5363076319483
45.0874330028892 10.5462993888302
45.1158669032156 10.4347247703158
45.1443008035421 10.4422185879772
45.1727347038686 10.2656975497306
45.2011686041951 10.4014189140429
45.2296025045216 10.3364724943106
45.2580364048481 10.2407181575259
45.2864703051746 10.3264807374287
45.3149042055011 10.3589539472949
45.3433381058276 10.2423834503395
45.3717720061541 10.216571411728
45.4002059064806 10.0741888761611
45.428639806807 10.1791023234209
45.4570737071335 10.1607841024708
45.48550760746 10.202416422812
45.5139415077865 10.1674452737254
45.542375408113 10.0200668597176
45.5708093084395 10.1799349698277
45.599243208766 10.0958376827385
45.6276771090925 9.94179809747614
45.656111009419 10.0833479866362
45.6845449097455 9.94512868310344
45.7129788100719 10.0625318264656
45.7414127103984 9.92514516933967
45.7698466107249 10.0175689204971
45.7982805110514 10.0425483127018
45.8267144113779 10.0192342133108
45.8551483117044 9.92347987652602
45.8835822120309 10.2199019973553
45.9120161123574 10.0666950584997
45.9404500126839 10.0017486387675
45.9688839130104 9.78609321940009
45.9973178133368 10.0858459258567
46.0257517136633 10.0367197878541
46.0541856139898 10.112490610875
46.0826195143163 9.99009158907192
46.1110534146428 9.94845926873073
46.1394873149693 9.99508746751287
46.1679212152958 9.90932488761001
46.1963551156223 10.1074947324341
46.2247890159488 9.8460437606914
46.2532229162753 9.83688465021634
46.2816568166018 10.0483768375496
46.3100907169282 10.1641146880981
46.3385246172547 10.1982531907779
46.3669585175812 10.145796467148
46.3953924179077 10.0916744507044
46.4238263182342 10.1283108926047
46.4522602185607 10.2065796548461
46.4806941188872 10.2715260745784
46.5091280192137 10.3256480910219
46.5375619195402 10.4538756376728
46.5659958198667 10.4430512343841
46.5944297201931 10.4072474388906
46.6228636205196 10.3456316047857
46.6512975208461 10.3106604556991
46.6797314211726 10.2482119751873
46.7081653214991 10.3697783505836
46.7365992218256 10.0766868153816
46.7650331221521 10.2182367045416
46.7934670224786 10.0775194617884
46.8219009228051 10.2207346437621
46.8503348231316 10.0067445172084
46.8787687234581 10.0350544950404
46.9072026237845 10.2199019973553
46.935636524111 10.1141559036887
46.9640704244375 10.0383850806677
46.992504324764 10.2015837764052
47.0209382250905 10.0583685944315
47.049372125417 10.0400503734813
47.0778060257435 10.0258953845653
47.10623992607 9.92347987652602
47.1346738263965 10.0508747767701
47.163107726723 9.92514516933967
47.1915416270494 10.0691929977202
47.2199755273759 9.95761837920579
47.2484094277024 10.0750215225679
47.2768433280289 10.1516249919957
47.3052772283554 10.1990858371847
47.3337111286819 10.0358871414472
47.3621450290084 10.0508747767701
47.3905789293349 9.96511219686721
47.4190128296614 10.0092424564289
47.4474467299879 10.0708582905338
47.4758806303144 9.86352933523471
47.5043145306408 9.99592011391969
47.5327484309673 9.93014104778061
47.5611823312938 9.96594484327403
47.5896162316203 10.0816826938225
47.6180501319468 10.0009159923606
47.6464840322733 10.0600338872451
47.6749179325998 9.99175688188557
47.7033518329263 10.0375524342609
47.7317857332528 10.0791847546021
47.7602196335793 10.1024988539931
47.7886535339057 10.2124081796939
47.8170874342322 10.008409810022
47.8455213345587 10.0758541689748
47.8739552348852 10.0208995061244
47.9023891352117 10.0192342133108
47.9308230355382 10.0758541689748
47.9592569358647 10.0192342133108
47.9876908361912 10.0666950584997
48.0161247365177 10.264032256917
48.0445586368442 10.0117403956493
48.0729925371706 9.98509571063098
48.1014264374971 10.2582037320692
48.1298603378236 10.1024988539931
48.1582942381501 10.216571411728
48.1867281384766 10.027560677379
48.2151620388031 10.3023339916308
48.2435959391296 10.154955577623
48.2720298394561 10.140800588707
48.3004637397826 10.2132408261007
48.3288976401091 10.4230677206203
48.3573315404356 10.4214024278066
48.385765440762 10.5721114274418
48.4141993410885 10.65121283609
48.442633241415 10.7736118578931
48.4710671417415 10.8926802940689
48.499501042068 11.0458872329245
48.5279349423945 11.3947660773837
48.556368842721 11.7511387395043
48.5848027430475 12.4164232185565
48.613236643374 13.2748816639918
48.6416705437005 13.9809658169784
48.6701044440269 14.4422519263588
48.6985383443534 14.4206031197813
48.7269722446799 14.5413368487708
48.7554061450064 14.2565717776371
48.7838400453329 13.666225475199
48.8122739456594 13.3439913157582
48.8407078459859 12.6620539085695
48.8691417463124 12.4055988152678
48.8975756466389 11.7827793029636
48.9260095469654 11.3139993759218
48.9544434472919 11.1458048017434
48.9828773476183 10.5854337699509
49.0113112479448 10.6903472172107
49.0397451482713 10.5687808418145
49.0681790485978 10.4064147924838
49.0966129489243 10.2790198922398
49.1250468492508 10.2973381131899
49.1534807495773 10.3039992844445
49.1819146499038 10.2074123012529
49.2103485502303 10.0475441911428
49.2387824505568 10.259036378476
49.2672163508832 9.98259777141051
49.2956502512097 10.0517074231769
49.3240841515362 10.126645599791
49.3525180518627 10.1058294396204
49.3809519521892 10.1649473345049
49.4093858525157 10.3239827982083
49.4378197528422 10.2107428868802
49.4662536531687 9.74862413109302
49.4946875534952 9.97843453937639
49.5231214538217 10.1799349698277
49.5515553541481 9.9892589426651
49.5799892544746 10.1474617599616
49.6084231548011 10.0217321525312
49.6368570551276 10.0175689204971
49.6652909554541 9.98093247859686
49.6937248557806 10.377272168245
49.7221587561071 10.0783521081952
49.7505926564336 10.0442136055155
49.7790265567601 10.1716085057595
49.8074604570866 10.1849308482687
49.8358943574131 10.2174040581348
49.8643282577395 10.0675277049065
49.892762158066 10.0342218486336
49.9211960583925 10.17410644498
49.949629958719 10.1566208704367
49.9780638590455 10.1716085057595
50.006497759372 10.0142383348698
50.0349316596985 9.99092423547875
50.063365560025 10.2107428868802
50.0917994603515 9.88684343462577
50.120233360678 10.0525400695837
50.1486672610044 10.1957552515574
50.1771011613309 10.2207346437621
50.2055350616574 9.91099018042366
50.2339689619839 10.0408830198882
50.2624028623104 10.1391352958934
50.2908367626369 10.1557882240299
50.3192706629634 10.0958376827385
50.3477045632899 10.0550380088042
50.3761384636164 10.0159036276835
50.4045723639429 10.0800174010089
50.4330062642694 10.3248154446151
50.4614401645958 9.95512043998532
50.4898740649223 10.0966703291454
50.5183079652488 9.98259777141051
50.5467418655753 10.1474617599616
50.5751757659018 10.1224823677569
50.6036096662283 10.1083273788409
50.6320435665548 10.1058294396204
50.6604774668813 10.183265555455
50.6889113672078 9.99175688188557
50.7173452675343 9.9892589426651
50.7457791678607 10.0067445172084
50.7742130681872 10.0208995061244
50.8026469685137 10.1799349698277
50.8310808688402 10.0725235833475
50.8595147691667 10.0433809591086
50.8879486694932 9.99841805314016
50.9163825698197 9.89100666665989
50.9448164701462 9.88850872743942
50.9732503704727 10.0092424564289
51.0016842707992 9.84687640709823
51.0301181711257 9.94512868310344
51.0585520714521 10.013405688463
51.0869859717786 9.91015753401684
51.1154198721051 10.1466291135548
51.1438537724316 10.1349720638593
51.1722876727581 10.1532902848094
51.2007215730846 10.1674452737254
51.2291554734111 9.97593660015592
51.2575893737376 10.0042465779879
51.2860232740641 10.2265631686099
51.3144571743906 9.91432076605096
51.342891074717 10.1932573123369
51.3713249750435 9.9509572079512
51.39975887537 10.1699432129459
51.4281927756965 10.0150709812766
51.456626676023 10.126645599791
51.4850605763495 10.1141559036887
51.513494476676 10.0009159923606
51.5419283770025 10.0725235833475
51.570362277329 10.0017486387675
51.5987961776555 10.0550380088042
51.6272300779819 9.96011631842627
51.6556639783084 9.98093247859686
51.6840978786349 10.0383850806677
51.7125317789614 9.9859283570378
51.7409656792879 10.0242300917517
51.7693995796144 10.1840982018619
51.7978334799409 9.98259777141051
51.8262673802674 10.117486489316
51.8547012805939 10.0650297656861
51.8831351809204 10.117486489316
51.9115690812469 10.1499596991821
51.9400029815733 9.88351284899848
51.9684368818998 10.1591188096572
51.9968707822263 9.97343866093545
52.0253046825528 9.89433725228719
52.0537385828793 9.86602727445518
52.0821724832058 9.97427130734227
52.1106063835323 10.1041641468068
52.1390402838588 10.145796467148
52.1674741841853 9.94179809747614
52.1959080845118 10.0625318264656
52.2243419848382 10.1349720638593
52.2527758851647 10.0342218486336
52.2812097854912 10.0925070971113
52.3096436858177 10.0350544950404
52.3380775861442 9.97094072171497
52.3665114864707 10.0833479866362
52.3949453867972 9.98259777141051
52.4233792871237 10.0691929977202
52.4518131874502 10.0225647989381
52.4802470877767 10.2157387653212
52.5086809881032 10.0950050363317
52.5371148884296 10.1158211965023
52.5655487887561 10.0025812851743
52.5939826890826 10.2415508039327
52.6224165894091 10.1432985279275
52.6508504897356 9.97760189296956
52.6792843900621 9.96677748968086
52.7077182903886 10.070025644127
52.7361521907151 10.0450462519223
52.7645860910416 10.0483768375496
52.7930199913681 10.0025812851743
52.8214538916945 10.0783521081952
52.849887792021 9.89350460588036
52.8783216923475 10.1224823677569
52.906755592674 10.1016662075863
52.9351894930005 10.1008335611795
52.963623393327 10.0567033016178
52.9920572936535 9.92431252293284
53.02049119398 10.0733562297543
53.0489250943065 9.86019874960741
53.077358994633 10.0050792243948
53.1057928949595 10.0958376827385
53.1342267952859 10.1199844285364
53.1626606956124 9.92347987652602
53.1910945959389 9.98509571063098
53.2195284962654 10.0933397435181
53.2479623965919 10.159951456064
53.2763962969184 10.0175689204971
53.3048301972449 10.1416332351139
53.3332640975714 9.98509571063098
53.3616979978979 10.0383850806677
53.3901318982244 9.94096545106932
53.4185657985508 9.97260601452862
53.4469996988773 10.1291435390115
53.4754335992038 9.99175688188557
53.5038674995303 10.0600338872451
53.5323013998568 10.0725235833475
53.5607353001833 9.99758540673334
53.5891692005098 10.0975029755522
53.6176031008363 10.1557882240299
53.6460370011628 10.1641146880981
53.6744709014893 10.2057470084393
53.7029048018157 10.1341394174524
53.7313387021422 10.1816002626414
53.7597726024687 10.0958376827385
53.7882065027952 10.1299761854183
53.8166404031217 10.070025644127
53.8450743034482 9.96594484327403
53.8735082037747 9.98093247859686
53.9019421041012 10.1166538429091
53.9303760044277 9.97676924656274
53.9588099047542 9.99425482110604
53.9872438050807 10.0600338872451
54.0156777054071 10.1149885500955
54.0441116057336 10.2015837764052
54.0725455060601 10.2049143620325
54.1009794063866 10.2398855111191
54.1294133067131 10.0775194617884
54.1578472070396 10.0408830198882
54.1862811073661 10.1000009147727
54.2147150076926 10.013405688463
54.2431489080191 9.91681870527143
54.2715828083456 9.98676100344463
54.300016708672 10.0616991800588
54.3284506089985 9.9401328046625
54.356884509325 10.0925070971113
54.3853184096515 10.2240652293894
54.413752309978 10.1682779201322
54.4421862103045 10.1024988539931
54.470620110631 10.1716085057595
54.4990540109575 10.1166538429091
54.527487911284 10.1541229312162
54.5559218116105 10.117486489316
54.584355711937 10.0683603513134
54.6127896122634 10.0875112186703
54.6412235125899 10.1108253180614
54.6696574129164 10.1649473345049
54.6980913132429 10.0567033016178
54.7265252135694 10.159951456064
54.7549591138959 9.98676100344463
54.7833930142224 10.154955577623
54.8118269145489 9.99092423547875
54.8402608148754 10.0092424564289
54.8686947152019 10.1682779201322
54.8971286155283 10.0342218486336
54.9255625158548 10.0633644728724
54.9539964161813 10.1541229312162
54.9824303165078 10.1249803069774
55.0108642168343 10.1233150141637
55.0392981171608 10.0725235833475
55.0677320174873 10.1283108926047
55.0961659178138 10.0458788983291
55.1245998181403 10.1557882240299
55.1530337184668 10.070025644127
55.1814676187932 10.0592012408383
55.2099015191197 10.0933397435181
55.2383354194462 10.1932573123369
55.2667693197727 10.0633644728724
55.2952032200992 9.92264723011919
55.3236371204257 10.1466291135548
55.3520710207522 10.2398855111191
55.3805049210787 10.0233974453449
55.4089388214052 10.0300586165995
55.4373727217317 10.0958376827385
55.4658066220582 10.0750215225679
55.4942405223846 10.2398855111191
55.5226744227111 10.055870655211
55.5511083230376 10.1816002626414
55.5795422233641 9.92764310856014
55.6079761236906 10.0483768375496
55.6364100240171 9.95262250076485
55.6648439243436 10.1566208704367
55.6932778246701 10.1291435390115
55.7217117249966 10.1199844285364
55.7501456253231 10.0658624120929
55.7785795256495 10.1083273788409
55.807013425976 10.3289786766492
55.8354473263025 10.1083273788409
55.863881226629 10.1283108926047
55.8923151269555 10.1008335611795
55.920749027282 10.0517074231769
55.9491829276085 10.0125730420562
55.977616827935 9.95512043998532
56.0060507282615 10.0833479866362
56.034484628588 10.1716085057595
56.0629185289145 10.3281460302424
56.0913524292409 10.2390528647122
56.1197863295674 10.1099926716545
56.1482202298939 10.2990034060036
56.1766541302204 10.2223999365758
56.2050880305469 10.0833479866362
56.2335219308734 9.99758540673334
56.2619558311999 9.89100666665989
56.2903897315264 10.1116579644682
56.3188236318529 9.99925069954698
56.3472575321794 10.0616991800588
56.3756914325058 10.1208170749433
56.4041253328323 10.1008335611795
56.4325592331588 10.0833479866362
56.4609931334853 9.90432900916907
56.4894270338118 9.98176512500369
56.5178609341383 10.098335621959
56.5462948344648 10.1674452737254
56.5747287347913 10.2723587209852
56.6031626351178 10.1133232572818
56.6315965354443 10.1424658815207
56.6600304357708 10.1949226051506
56.6884643360972 10.0866785722635
56.7168982364237 10.0375524342609
56.7453321367502 10.1907593731165
56.7737660370767 9.87934961696436
56.8021999374032 10.0666950584997
56.8306338377297 9.93513692622155
56.8590677380562 10.2248978757962
56.8875016383827 10.1299761854183
56.9159355387092 10.2507099144078
56.9443694390357 10.2332243398645
56.9728033393621 10.1191517821296
57.0012372396886 10.1557882240299
57.0296711400151 10.1466291135548
57.0581050403416 10.2232325829826
57.0865389406681 10.0908418042976
57.1149728409946 10.2040817156256
57.1434067413211 10.1482944063684
57.1718406416476 10.31565633414
57.2002745419741 10.0475441911428
57.2287084423006 10.1999184835915
57.257142342627 10.1791023234209
57.2855762429535 10.1774370306073
57.31401014328 10.3239827982083
57.3424440436065 10.2199019973553
57.370877943933 10.3839333394996
57.3993118442595 10.2582037320692
57.427745744586 10.2607016712897
57.4561796449125 10.3181542733605
57.484613545239 10.2673628425442
57.5130474455655 10.2423834503395
57.541481345892 10.2440487431532
57.5699152462184 10.3056645772581
57.5983491465449 10.3572886544812
57.6267830468714 10.301501345224
57.6552169471979 10.2099102404734
57.6836508475244 10.2523752072214
57.7120847478509 10.1999184835915
57.7405186481774 10.3497948368198
57.7689525485039 10.1724411521663
57.7973864488304 10.3081625164786
57.8258203491569 10.159951456064
57.8542542494833 10.38643127872
57.8826881498098 10.24488138956
57.9111220501363 10.38643127872
57.9395559504628 10.2931748811558
57.9679898507893 10.3131583949196
57.9964237511158 10.154955577623
58.0248576514423 10.4147412565521
58.0532915517688 10.2740240137988
58.0817254520953 10.476357090657
58.1101593524218 10.2931748811558
58.1385932527483 10.3223175053946
58.1670271530747 10.4147412565521
58.1954610534012 10.3656151185495
58.2238949537277 10.3847659859064
58.2523288540542 10.3814354002791
58.2807627543807 10.4280635990612
58.3091966547072 10.334807201497
58.3376305550337 10.6428863720218
58.3660644553602 10.6861839851766
58.3944983556867 10.7927627252501
58.4229322560132 10.854378559355
58.4513661563396 10.9234882111214
58.4798000566661 11.2482203097827
58.5082339569926 11.3048402654467
58.5366678573191 11.5179977455936
58.5651017576456 11.7936037062523
58.5935356579721 12.0583852636222
58.6219695582986 12.3073465392626
58.6504034586251 12.8469014108844
58.6788373589516 13.3664727687424
58.7072712592781 14.0575692864062
58.7357051596045 14.4772230754454
58.764139059931 14.6579073457261
58.7925729602575 14.8544118977365
58.821006860584 14.4722271970044
58.8494407609105 14.4780557218522
58.877874661237 13.9343376181963
58.9063085615635 13.6678907680126
58.93474246189 13.4172641995587
58.9631763622165 12.9018560737347
58.991610262543 12.513010201748
59.0200441628695 12.1791189926117
59.0484780631959 11.7919384134386
59.0769119635224 11.4430595689794
59.1053458638489 11.1957635861528
59.1337797641754 10.8202400566752
59.1622136645019 10.7669506866385
59.1906475648284 10.8219053494889
59.2190814651549 10.642053725615
59.2475153654814 10.3431336655652
59.2759492658079 10.4613694553342
59.3043831661344 10.5104955933368
59.3328170664608 10.4738591514365
59.3612509667873 10.4488797592318
59.3896848671138 10.320652212581
59.4181187674403 10.4313941846885
59.4465526677668 10.3339745550902
59.4749865680933 10.2498772680009
59.5034204684198 10.197420544371
59.5318543687463 10.4130759637384
59.5602882690728 10.1349720638593
59.5887221693993 10.2015837764052
59.6171560697258 10.3389704335311
59.6455899700522 10.2956728203763
59.6740238703787 10.2723587209852
59.7024577707052 10.3764395218382
59.7308916710317 10.0300586165995
59.7593255713582 10.2398855111191
59.7877594716847 10.1840982018619
59.8161933720112 10.24488138956
59.8446272723377 10.1649473345049
59.8730611726642 10.1990858371847
59.9014950729907 10.1890940803028
59.9299289733171 10.2557057928487
59.9583628736436 10.230726400644
59.9867967739701 10.2290611078304
60.0152306742966 10.1682779201322
60.0436645746231 10.2482119751873
60.0720984749496 10.0925070971113
60.1005323752761 10.0908418042976
60.1289662756026 10.2182367045416
60.1574001759291 10.2482119751873
60.1858340762556 10.3606192401085
60.2142679765821 10.2673628425442
60.2427018769085 10.084180633043
60.271135777235 10.2840157706807
60.2995696775615 10.3098278092923
60.328003577888 10.2582037320692
60.3564374782145 10.2998360524104
60.384871378541 10.3714436433972
60.4133052788675 10.1666126273186
60.441739179194 10.2415508039327
60.4701730795205 10.4313941846885
60.498606979847 10.2007511299983
60.5270408801734 10.2174040581348
60.5554747804999 10.320652212581
60.5839086808264 10.2124081796939
60.6123425811529 10.2965054667831
60.6407764814794 10.2615343176965
60.6692103818059 10.1241476605706
60.6976442821324 10.306497223665
60.7260781824589 10.3148236877332
60.7545120827854 10.2623669641033
60.7829459831119 10.4014189140429
60.8113798834383 10.2232325829826
60.8398137837648 10.453042991266
60.8682476840913 10.1799349698277
60.8966815844178 10.2423834503395
60.9251154847443 10.0833479866362
60.9535493850708 10.2881790027148
60.9819832853973 10.4513776984523
61.0104171857238 10.1133232572818
61.0388510860503 10.2032490692188
61.0672849863768 10.0950050363317
61.0957188867033 10.1940899587438
61.1241527870297 10.1516249919957
61.1525866873562 10.259036378476
61.1810205876827 10.2648649033238
61.2094544880092 10.1824329090482
61.2378883883357 10.2548731464419
61.2663222886622 10.2823504778671
61.2947561889887 10.3689457041768
61.3231900893152 10.2398855111191
61.3516239896417 10.089176511484
61.3800578899682 10.1824329090482
61.4084917902946 10.334807201497
61.4369256906211 10.2648649033238
61.4653595909476 10.3414683727516
61.4937934912741 10.1666126273186
61.5222273916006 10.3464642511925
61.5506612919271 10.0450462519223
61.5790951922536 10.1466291135548
61.6075290925801 10.1099926716545
61.6359629929066 10.0991682683658
61.6643968932331 9.96011631842627
61.6928307935596 10.2423834503395
61.721264693886 10.2357222790849
61.7496985942125 10.112490610875
61.778132494539 10.2673628425442
61.8065663948655 10.2981707595967
61.835000295192 10.2240652293894
61.8634341955185 10.2931748811558
61.891868095845 10.2182367045416
61.9203019961715 10.2698607817647
61.948735896498 10.2040817156256
61.9771697968245 10.3989209748224
62.0056036971509 10.3006686988172
62.0340375974774 10.3606192401085
62.0624714978039 10.3922598035678
62.0909053981304 10.3972556820088
62.1193392984569 10.2973381131899
62.1477731987834 10.5296464606937
62.1762070991099 10.2856810634944
62.2046409994364 10.4313941846885
62.2330748997629 10.3398030799379
62.2615088000894 10.3198195661741
62.2899427004159 10.3048319308513
62.3183766007423 10.3248154446151
62.3468105010688 10.216571411728
62.3752444013953 10.3048319308513
62.4036783017218 10.4422185879772
62.4321122020483 10.3306439694629
62.4605461023748 10.4688632729956
62.4889800027013 10.4347247703158
62.5174139030278 10.391427157161
62.5458478033543 10.2848484170875
62.5742817036808 10.4430512343841
62.6027156040072 10.5054997148959
62.6311495043337 10.2240652293894
62.6595834046602 10.169110566539
62.6880173049867 10.4130759637384
62.7164512053132 10.4313941846885
62.7448851056397 10.31565633414
62.7733190059662 10.2948401739694
62.8017529062927 10.3564560080744
62.8301868066192 10.1824329090482
62.8586207069457 10.4355574167227
62.8870546072721 10.0292259701926
62.9154885075986 10.2157387653212
62.9439224079251 10.2756893066125
62.9723563082516 10.1099926716545
63.0007902085781 10.4097453781111
63.0292241089046 10.3622845329222
63.0576580092311 10.2157387653212
63.0860919095576 10.3689457041768
63.1145258098841 10.2149061189143
63.1429597102106 10.3656151185495
63.1713936105371 10.2998360524104
63.1998275108635 10.4846835547253
63.22826141119 10.3539580688539
63.2566953115165 10.216571411728
63.285129211843 10.2940075275626
63.3135631121695 10.2207346437621
63.341997012496 10.17410644498
63.3704309128225 10.5030017756754
63.398864813149 10.2423834503395
63.4272987134755 10.2124081796939
63.455732613802 10.2648649033238
63.4841665141284 10.3289786766492
63.5126004144549 10.3198195661741
63.5410343147814 10.3564560080744
63.5694682151079 10.2540405000351
63.5979021154344 10.1940899587438
63.6263360157609 10.4380553559431
63.6547699160874 10.4022515604497
63.6832038164139 10.287346356308
63.7116377167404 10.3747742290245
63.7400716170669 10.4805203226911
63.7685055173934 10.348962190413
63.7969394177198 10.2332243398645
63.8253733180463 10.4122433173316
63.8538072183728 10.2174040581348
63.8822411186993 10.4513776984523
63.9106750190258 10.2290611078304
63.9391089193523 10.3989209748224
63.9675428196788 10.4522103448591
63.9959767200053 10.4796876762843
64.0244106203318 10.3872639251269
64.0528445206583 10.7036695597199
64.0812784209847 10.4180718421794
64.1097123213112 10.4755244442502
64.1381462216377 10.7469671728748
64.1665801219642 10.7761097971136
64.1950140222907 10.930149382376
64.2234479226172 11.1033398349953
64.2518818229437 11.1208254095386
64.2803157232702 11.3589622818902
64.3087496235967 11.4005946022314
64.3371835239232 11.7594652035725
64.3656174242496 12.1649640036957
64.3940513245761 12.9917818856717
64.4224852249026 13.632919618926
64.4509191252291 14.7711472570542
64.4793530255556 15.4647417139384
64.5077869258821 16.2540905076074
64.5362208262086 16.652928136476
64.5646547265351 16.9601746605939
64.5930886268616 16.8044697825179
64.6215225271881 16.548847335623
64.6499564275146 16.4472644739905
64.678390327841 16.0167862816626
64.7068242281675 15.8644119892138
64.735258128494 15.9693254364736
64.7636920288205 15.5804795644869
64.792125929147 15.3048736038282
64.8205598294735 15.4539173106497
64.8489937298 15.6720706692375
64.8774276301265 16.137520010652
64.905861530453 16.7411886555993
64.9342954307795 17.6604302887327
64.9627293311059 17.5863247585254
64.9911632314324 17.7353684653469
65.0195971317589 17.0975613177199
65.0480310320854 16.4630847557201
65.0764649324119 16.0309412705786
65.1048988327384 15.5654919291641
65.1333327330649 14.9151950854347
65.1617666333914 14.9534968201486
65.1902005337179 14.1208504133248
65.2186344340444 13.3664727687424
65.2470683343709 12.853562582139
65.2755022346973 12.1874454566799
65.3039361350238 11.6503885242786
65.3323700353503 11.5338180273232
65.3608039356768 11.209085928662
65.3892378360033 11.147470094557
65.4176717363298 10.8918476476621
65.4461056366563 10.7494651120952
65.4745395369828 10.7378080623997
65.5029734373093 10.8094156533865
65.5314073376358 10.6254007974785
65.5598412379622 10.5213199966255
65.5882751382887 10.5171567645914
65.6167090386152 10.4263983062476
65.6451429389417 10.566282902594
65.6735768392682 10.4147412565521
65.7020107395947 10.4605368089274
65.7304446399212 10.4971732508276
65.7588785402477 10.4497124056387
65.7873124405742 10.6237355046648
65.8157463409007 10.4580388697069
65.8441802412272 10.5429688032029
65.8726141415536 10.3855986323132
65.9010480418801 10.5104955933368
65.9294819422066 10.3614518865153
65.9579158425331 10.476357090657
65.9863497428596 10.3522927760403
66.0147836431861 10.2340569862713
66.0432175435126 10.3056645772581
66.0716514438391 10.2673628425442
66.1000853441656 10.4921773723867
66.1285192444921 10.4422185879772
66.1569531448185 10.5271485214733
66.185387045145 10.3547907152607
66.2138209454715 10.4755244442502
66.242254845798 10.3547907152607
66.2706887461245 10.4039168532634
66.299122646451 10.3656151185495
66.3275565467775 10.278187245833
66.355990447104 10.2998360524104
66.3844243474305 10.3681130577699
66.412858247757 10.2582037320692
66.4412921480834 10.1890940803028
66.4697260484099 10.2881790027148
66.4981599487364 10.2798525386466
66.5265938490629 10.3248154446151
66.5550277493894 10.4222350742135
66.5834616497159 10.2915095883421
66.6118955500424 10.2973381131899
66.6403294503689 10.2423834503395
66.6687633506954 10.4846835547253
66.6971972510219 10.3039992844445
66.7256311513484 10.4047494996702
66.7540650516748 10.2973381131899
66.7824989520013 10.2340569862713
66.8109328523278 10.3139910413264
66.8393667526543 10.3289786766492
66.8678006529808 10.3597865937017
66.8962345533073 10.3589539472949
66.9246684536338 10.4164065493657
66.9531023539603 10.5454667424234
66.9815362542868 10.4155739029589
67.0099701546133 10.5271485214733
67.0384040549397 10.348962190413
67.0668379552662 10.2973381131899
67.0952718555927 10.4014189140429
67.1237057559192 10.2990034060036
67.1521396562457 10.3839333394996
67.1805735565722 10.4305615382817
67.2090074568987 10.4005862676361
67.2374413572252 10.3264807374287
67.2658752575517 10.3639498257358
67.2943091578782 10.3164889805469
67.3227430582047 10.3497948368198
67.3511769585311 10.3373051407174
67.3796108588576 10.372276289804
67.4080447591841 10.3905945107542
67.4364786595106 10.3447989583789
67.4649125598371 10.2656975497306
67.4933464601636 10.2806851850534
67.5217803604901 10.2815178314603
67.5502142608166 10.3706109969904
67.5786481611431 10.2582037320692
67.6070820614696 10.188261433896
67.635515961796 10.3814354002791
67.6639498621225 10.2099102404734
67.692383762449 10.2773545994261
67.7208176627755 10.419737134993
67.749251563102 10.6312293223262
67.7776854634285 10.5371402783552
67.806119363755 10.329811323056
67.8345532640815 10.5496299744575
67.862987164408 10.6395557863945
67.8914210647345 10.6062499301215
67.9198549650609 10.6861839851766
67.9482888653874 10.7186571950427
67.9767227657139 10.8293991671503
68.0051566660404 10.8610397306096
68.0335905663669 10.9542961281739
68.0620244666934 11.1532986194048
68.0904583670199 11.2790282268352
68.1188922673464 11.4871898285411
68.1473261676729 11.9901082582627
68.1757600679994 12.7752938198975
68.2041939683259 12.9293334051599
68.2326278686523 13.8210977068682
68.2610617689788 14.1658133192933
68.2894956693053 14.2449147279415
68.3179295696318 14.1758050761752
68.3463634699583 13.9751372921306
68.3747973702848 13.7802980329338
68.4032312706113 13.3914521609471
68.4316651709378 13.2515675646007
68.4600990712643 13.0983606257452
68.4885329715908 12.9309986979736
68.5169668719172 12.5821198535144
68.5454007722437 12.1474784291524
68.5738346725702 11.813587220016
68.6022685728967 11.6712046844492
68.6307024732232 11.1974288789664
68.6591363735497 11.2107512214756
68.6875702738762 10.873529426712
68.7160041742027 10.8693661946779
68.7444380745292 10.7711139186726
68.7728719748557 10.7536283441293
68.8013058751822 10.4555409304864
68.8297397755086 10.627898736699
68.8581736758351 10.4805203226911
68.8866075761616 10.495507958014
68.9150414764881 10.3814354002791
68.9434753768146 10.4938426652003
68.9719092771411 10.58043789151
69.0003431774676 10.3797701074655
69.0287770777941 10.3639498257358
69.0572109781206 10.3930924499746
69.0856448784471 10.2756893066125
69.1140787787735 10.4538756376728
69.1425126791 10.2082449476598
69.1709465794265 10.3622845329222
69.199380479753 10.3872639251269
69.2278143800795 10.2565384392555
69.256248280406 10.287346356308
69.2846821807325 10.329811323056
69.313116081059 10.3031666380377
69.3415499813855 10.3148236877332
69.369983881712 10.2540405000351
69.3984177820385 10.2773545994261
69.4268516823649 10.292342234749
69.4552855826914 10.2698607817647
69.4837194830179 10.3339745550902
69.5121533833444 10.4330594775022
69.5405872836709 10.306497223665
69.5690211839974 10.2748566602057
69.5974550843239 10.372276289804
69.6258889846504 10.3839333394996
69.6543228849769 10.0966703291454
69.6827567853034 10.3764395218382
69.7111906856298 10.4005862676361
69.7396245859563 10.4963406044208
69.7680584862828 10.3189869197673
69.7964923866093 10.2490446215941
69.8249262869358 10.320652212581
69.8533601872623 10.301501345224
69.8817940875888 10.2532078536282
69.9102279879153 10.2498772680009
69.9386618882418 10.0958376827385
69.9670957885683 10.4147412565521
69.9955296888947 10.2790198922398
70.0239635892212 10.2990034060036
70.0523974895477 10.3955903891951
70.0808313898742 10.5129935325573
70.1092652902007 10.3664477649563
70.1376991905272 10.4022515604497
70.1661330908537 10.3223175053946
70.1945669911802 10.4647000409615
70.2230008915067 10.0766868153816
70.2514347918332 10.3114931021059
70.2798686921597 10.3098278092923
70.3083025924861 10.2365549254918
70.3367364928126 10.3073298700718
70.3651703931391 10.2990034060036
70.3936042934656 10.3406357263447
70.4220381937921 10.3273133838356
70.4504720941186 10.1341394174524
70.4789059944451 10.1133232572818
70.5073398947716 10.2515425608146
70.5357737950981 10.202416422812
70.5642076954246 10.1824329090482
70.592641595751 10.1940899587438
70.6210754960775 10.3414683727516
70.649509396404 10.2473793287805
70.6779432967305 10.4222350742135
70.706377197057 10.1999184835915
70.7348110973835 10.343966311972
70.76324499771 10.3597865937017
70.7916788980365 10.2565384392555
70.820112798363 10.1616167488776
70.8485466986895 10.4064147924838
70.876980599016 10.2074123012529
70.9054144993424 10.3539580688539
70.9338483996689 10.4322268310954
70.9622822999954 10.2390528647122
70.9907162003219 10.4130759637384
71.0191501006484 10.3098278092923
71.0475840009749 10.3356398479038
71.0760179013014 10.3139910413264
71.1044518016279 10.3564560080744
71.1328857019544 10.4189044885862
71.1613196022809 10.1557882240299
71.1897535026073 10.2032490692188
71.2181874029338 10.1507923455889
71.2466213032603 10.1907593731165
71.2750552035868 10.3456316047857
71.3034891039133 10.2740240137988
71.3319230042398 10.3031666380377
71.3603569045663 10.4297288918749
71.3887908048928 10.0142383348698
71.4172247052193 10.1657799809117
71.4456586055458 10.2157387653212
71.4740925058723 10.4122433173316
71.5025264061987 10.2315590470508
71.5309603065252 10.2432160967464
71.5593942068517 10.1391352958934
71.5878281071782 10.3606192401085
71.6162620075047 10.3114931021059
71.6446959078312 10.1366373566729
71.6731298081577 10.2149061189143
71.7015637084842 10.2740240137988
71.7299976088107 10.2890116491217
71.7584315091372 10.3589539472949
71.7868654094636 10.202416422812
71.8152993097901 10.2665301961374
71.8437332101166 10.1791023234209
71.8721671104431 10.2473793287805
71.9006010107696 10.1158211965023
71.9290349110961 10.1449638207411
71.9574688114226 10.2798525386466
71.9859027117491 10.1574535168435
72.0143366120756 10.0467115447359
72.0427705124021 10.4255656598408
72.0712044127285 10.1000009147727
72.099638313055 10.2815178314603
72.1280722133815 10.1724411521663
72.156506113708 10.2890116491217
72.1849400140345 10.3256480910219
72.213373914361 10.264032256917
72.2418078146875 10.1907593731165
72.270241715014 10.2465466823737
72.2986756153405 10.3223175053946
72.327109515667 10.1766043842005
72.3555434159935 10.5321443999142
72.3839773163199 10.3472968975993
72.4124112166464 10.3531254224471
72.4408451169729 10.3556233616676
72.4692790172994 10.2174040581348
72.4977129176259 10.2965054667831
72.5261468179524 10.2273958150167
72.5545807182789 10.3664477649563
72.5830146186054 10.3672804113631
72.6114485189319 10.2607016712897
72.6398824192584 10.348962190413
72.6683163195848 10.3339745550902
72.6967502199113 10.1874287874892
72.7251841202378 10.3589539472949
72.7536180205643 10.3164889805469
72.7820519208908 10.4372227095363
72.8104858212173 10.3048319308513
72.8389197215438 10.2806851850534
72.8673536218703 10.3839333394996
72.8957875221968 10.3039992844445
72.9242214225233 10.2607016712897
72.9526553228498 10.2856810634944
72.9810892231762 10.2981707595967
73.0095231235027 10.1666126273186
73.0379570238292 10.2798525386466
73.0663909241557 10.1666126273186
73.0948248244822 10.2615343176965
73.1232587248087 10.1291435390115
73.1516926251352 10.3089951628854
73.1801265254617 10.3481295440062
73.2085604257882 10.433892123909
73.2369943261147 10.3273133838356
73.2654282264411 10.3447989583789
73.2938621267676 10.2756893066125
73.3222960270941 10.2273958150167
73.3507299274206 10.2956728203763
73.3791638277471 10.2398855111191
73.4075977280736 10.2099102404734
73.4360316284001 10.1990858371847
73.4644655287266 10.1907593731165
73.4928994290531 10.2215672901689
73.5213333293796 10.3947577427883
73.549767229706 10.3447989583789
73.5782011300325 10.2698607817647
73.606635030359 10.1965878979642
73.6350689306855 10.1641146880981
73.663502831012 10.2656975497306
73.6919367313385 10.58043789151
73.720370631665 10.3781048146518
73.7488045319915 10.4380553559431
73.777238432318 10.2498772680009
73.8056723326445 10.3889292179405
73.834106232971 10.2465466823737
73.8625401332974 10.292342234749
73.8909740336239 10.3880965715337
73.9194079339504 10.405582146077
73.9478418342769 10.4180718421794
73.9762757346034 10.4164065493657
74.0047096349299 10.3031666380377
74.0331435352564 10.3547907152607
74.0615774355829 10.3173216269537
74.0900113359094 10.3947577427883
74.1184452362359 10.320652212581
74.1468791365623 10.3656151185495
74.1753130368888 10.3839333394996
74.2037469372153 10.3089951628854
74.2321808375418 10.4397206487568
74.2606147378683 10.4272309526544
74.2890486381948 10.3831006930928
74.3174825385213 10.3955903891951
74.3459164388478 10.320652212581
74.3743503391743 10.2773545994261
74.4027842395008 10.3806027538723
74.4312181398273 10.197420544371
74.4596520401537 10.2432160967464
74.4880859404802 10.348962190413
74.5165198408067 10.1707758593527
74.5449537411332 10.2940075275626
74.5733876414597 10.2998360524104
74.6018215417862 10.2432160967464
74.6302554421127 10.3456316047857
74.6586893424392 10.334807201497
74.6871232427657 10.1133232572818
74.7155571430922 10.1924246659301
74.7439910434186 10.38643127872
74.7724249437451 10.0508747767701
74.8008588440716 10.2557057928487
74.8292927443981 10.4505450520455
74.8577266447246 10.0816826938225
74.8861605450511 10.3073298700718
74.9145944453776 10.3639498257358
74.9430283457041 10.2007511299983
74.9714622460306 10.2107428868802
74.9998961463571 10.3955903891951
75.0283300466836 10.3173216269537
75.05676394701 10.4172391957725
75.0851978473365 10.3731089362109
75.113631747663 10.1041641468068
75.1420656479895 10.2557057928487
75.170499548316 10.2490446215941
75.1989334486425 10.2823504778671
75.227367348969 10.4322268310954
75.2558012492955 10.4380553559431
75.284235149622 10.3797701074655
75.3126690499485 10.377272168245
75.3411029502749 10.2323916934576
75.3695368506014 10.2057470084393
75.3979707509279 10.5912622947987
75.4264046512544 10.2149061189143
75.4548385515809 10.3731089362109
75.4832724519074 10.3456316047857
75.5117063522339 10.3306439694629
75.5401402525604 10.3497948368198
75.5685741528869 10.273191367392
75.5970080532134 10.343966311972
75.6254419535398 10.3089951628854
75.6538758538663 10.3423010191584
75.6823097541928 10.2965054667831
75.7107436545193 10.38643127872
75.7391775548458 10.348962190413
75.7676114551723 10.0966703291454
75.7960453554988 10.2706934281715
75.8244792558253 10.2240652293894
75.8529131561518 10.1241476605706
75.8813470564783 10.3497948368198
75.9097809568048 10.3472968975993
75.9382148571312 10.3389704335311
75.9666487574577 10.2107428868802
75.9950826577842 10.4896794331662
76.0235165581107 10.3223175053946
76.0519504584372 10.5487973280507
76.0803843587637 10.3356398479038
76.1088182590902 10.0117403956493
76.1372521594167 10.4272309526544
76.1656860597432 10.3539580688539
76.1941199600697 10.3123257485127
76.2225538603961 10.3622845329222
76.2509877607226 10.2598690248828
76.2794216610491 10.3697783505836
76.3078555613756 10.4497124056387
76.3362894617021 10.216571411728
76.3647233620286 10.169110566539
76.3931572623551 10.490512079573
76.4215911626816 10.2573710856624
76.4500250630081 10.3198195661741
76.4784589633346 10.377272168245
76.5068928636611 10.169110566539
76.5353267639875 10.1907593731165
76.563760664314 10.2623669641033
76.5921945646405 10.5013364828617
76.620628464967 10.2865137099012
76.6490623652935 10.3814354002791
76.67749626562 10.4089127317043
76.7059301659465 10.5646176097803
76.734364066273 10.5138261789641
76.7627979665995 10.4463818200114
76.791231866926 10.4963406044208
76.8196657672524 10.8935129404757
76.8480996675789 10.7877668468091
76.8765335679054 10.6861839851766
76.9049674682319 10.9101658686122
76.9334013685584 10.9701164099035
76.9618352688849 11.0816910284179
76.9902691692114 11.1274865807932
77.0187030695379 11.2199103319507
77.0471369698644 11.1599597906594
77.0755708701909 11.1399762768956
77.1040047705173 11.0966786637408
77.1324386708438 10.91599439346
77.1608725711703 10.9876019844468
77.1893064714968 11.3139993759218
77.2177403718233 11.2357306136803
77.2461742721498 11.0866869068589
77.2746081724763 11.2265715032053
77.3030420728028 10.9734469955308
77.3314759731293 11.1607924370662
77.3599098734558 11.1982615253733
77.3883437737823 11.0442219401108
77.4167776741087 11.3381461217197
77.4452115744352 11.2065879894415
77.4736454747617 11.0950133709271
77.5020793750882 11.0583769290269
77.5305132754147 11.0916827852998
77.5589471757412 11.0966786637408
77.5873810760677 10.8585417913891
77.6158149763942 11.0400587080767
77.6442488767207 11.043389293704
77.6726827770472 11.2082532822551
77.7011166773736 11.3872722597223
77.7295505777001 11.2573794202577
77.7579844780266 11.3115014367013
77.7864183783531 11.5912706293941
77.8148522786796 11.4863571821343
77.8432861790061 11.6803637949242
77.8717200793326 11.7594652035725
77.9001539796591 11.7236614080791
77.9285878799856 11.7786160709294
77.9570217803121 11.6179153144124
77.9854556806386 11.5221609776277
78.013889580965 11.5604627123416
78.0423234812915 11.771122253268
78.070757381618 11.4413942761658
78.0991912819445 11.3489705250084
78.127625182271 11.4230760552157
78.1560590825975 11.3373134753128
78.184492982924 11.1882697684914
78.2129268832505 11.1699515475412
78.241360783577 11.0375607688563
78.2697946839035 10.8910150012553
78.2982285842299 10.7994238965047
78.3266624845564 10.8185747638616
78.3550963848829 10.6811881067357
78.3835302852094 10.5737767202554
78.4119641855359 10.6012540516806
78.4403980858624 10.4946753116071
78.4688319861889 10.5030017756754
78.4972658865154 10.467197980182
78.5256997868419 10.4455491736045
78.5541336871684 10.3364724943106
78.5825675874949 10.3789374610586
78.6110014878213 10.43888800235
78.6394353881478 10.3481295440062
78.6678692884743 10.4771897370638
78.6963031888008 10.3447989583789
78.7247370891273 10.3972556820088
78.7531709894538 10.4522103448591
78.7816048897803 10.4497124056387
78.8100387901068 10.5079976541163
78.8384726904333 10.1890940803028
78.8669065907598 10.3314766158697
78.8953404910862 10.2457140359668
78.9237743914127 10.264032256917
78.9522082917392 10.5221526430323
78.9806421920657 10.2981707595967
79.0090760923922 10.4005862676361
79.0375099927187 10.4222350742135
79.0659438930452 10.4422185879772
79.0943777933717 10.3123257485127
79.1228116936982 10.4155739029589
79.1512455940247 10.3622845329222
79.1796794943511 10.4122433173316
79.2081133946776 10.3389704335311
79.2365472950041 10.2265631686099
79.2649811953306 10.3056645772581
79.2934150956571 10.2373875718986
79.3218489959836 10.2248978757962
79.3502828963101 10.2290611078304
79.3787167966366 10.5587890849326
79.4071506969631 10.3706109969904
79.4355845972896 10.3056645772581
79.4640184976161 10.2965054667831
79.4924523979425 10.3930924499746
79.520886298269 10.3756068754313
79.5493201985955 10.3356398479038
79.577754098922 10.3048319308513
79.6061879992485 10.5129935325573
79.634621899575 10.301501345224
79.6630557999015 10.3164889805469
79.691489700228 10.2532078536282
79.7199236005545 10.358121300888
79.748357500881 10.3656151185495
79.7767914012074 10.3806027538723
79.8052253015339 10.3039992844445
79.8336592018604 10.3073298700718
79.8620931021869 10.552127913678
79.8905270025134 10.3456316047857
79.9189609028399 10.2365549254918
79.9473948031664 10.2898442955285
79.9758287034929 10.2049143620325
80.0042626038194 10.2240652293894
80.0326965041459 10.4305615382817
80.0611304044724 10.292342234749
80.0895643047988 10.2798525386466
80.1179982051253 10.372276289804
80.1464321054518 10.2348896326781
80.1748660057783 10.3647824721426
80.2032999061048 10.4330594775022
80.2317338064313 10.3597865937017
80.2601677067578 10.3306439694629
80.2886016070843 10.2723587209852
80.3170355074108 10.2365549254918
80.3454694077373 10.3281460302424
80.3739033080637 10.3006686988172
80.4023372083902 10.4114106709248
80.4307711087167 10.3806027538723
80.4592050090432 10.4130759637384
80.4876389093697 10.3939250963815
80.5160728096962 10.3364724943106
80.5445067100227 10.3781048146518
80.5729406103492 10.3656151185495
80.6013745106757 10.2906769419353
80.6298084110022 10.2973381131899
80.6582423113287 10.3389704335311
80.6866762116551 10.3514601296335
80.7151101119816 10.2607016712897
80.7435440123081 10.4980058972344
80.7719779126346 10.3114931021059
80.8004118129611 10.5113282397436
80.8288457132876 10.38643127872
80.8572796136141 10.3431336655652
80.8857135139406 10.4080800852975
80.9141474142671 10.5546258528985
80.9425813145936 10.3855986323132
80.97101521492 10.5005038364549
80.9994491152465 10.4405532951636
81.027883015573 10.4355574167227
81.0563169158995 10.5104955933368
81.084750816226 10.5005038364549
81.1131847165525 10.4363900631295
81.141618616879 10.5721114274418
81.1700525172055 10.5696134882213
81.198486417532 10.6445516648354
81.2269203178585 10.6337272615467
81.2553542181849 10.6870166315834
81.2837881185114 10.9876019844468
81.3122220188379 11.0542136969927
81.3406559191644 10.9925978628878
81.3690898194909 11.2207429783575
81.3975237198174 11.2165797463234
81.4259576201439 11.1316498128273
81.4543915204704 11.0217404871266
81.4828254207969 11.0050875589901
81.5112593211234 11.1491353873706
81.5396932214499 10.930149382376
81.5681271217763 11.05754428262
81.5965610221028 11.0308995976017
81.6249949224293 10.9601246530216
81.6534288227558 10.8410562168458
81.6818627230823 10.8160768246411
81.7102966234088 10.9168270398668
81.7387305237353 10.8227379958957
81.7671644240618 10.7311468911451
81.7955983243883 10.8052524213524
81.8240322247148 10.8926802940689
81.8524661250412 10.7228204270769
81.8809000253677 10.9959284485151
81.9093339256942 10.7944280180637
81.9377678260207 10.8726967803051
81.9662017263472 11.0583769290269
81.9946356266737 11.2149144535097
82.0230695270002 11.5579647731211
82.0515034273267 11.5937685686146
82.0799373276532 11.785277242184
82.1083712279797 12.1449804899319
82.1368051283062 12.5138428481549
82.1652390286326 12.7569755989474
82.1936729289591 12.5796219142939
82.2221068292856 12.7752938198975
82.2505407296121 12.4638840637454
82.2789746299386 12.3548073844515
82.3074085302651 12.1716251749503
82.3358424305916 11.9967694295173
82.3642763309181 12.1424825507114
82.3927102312446 11.8860274574097
82.4211441315711 11.9168353744622
82.4495780318975 11.7070084799426
82.478011932224 11.6129194359715
82.5064458325505 11.3181626079559
82.534879732877 11.2482203097827
82.5633136332035 10.9809408131922
82.59174753353 10.9942631557014
82.6201814338565 10.8202400566752
82.648615334183 10.7186571950427
82.6770492345095 10.5604543777462
82.705483134836 10.6628698857856
82.7339170351624 10.6970083884653
82.7623509354889 10.4755244442502
82.7907848358154 10.6662004714128
82.8192187361419 10.4180718421794
82.8476526364684 10.4538756376728
82.8760865367949 10.4788550298775
82.9045204371214 10.4080800852975
82.9329543374479 10.462202101741
82.9613882377744 10.4996711900481
82.9898221381009 10.5496299744575
83.0182560384274 10.65121283609
83.0466899387538 10.4838509083184
83.0751238390803 10.3514601296335
83.1035577394068 10.2532078536282
83.1319916397333 10.4846835547253
83.1604255400598 10.3139910413264
83.1888594403863 10.4663653337751
83.2172933407128 10.2065796548461
83.2457272410393 10.5363076319483
83.2741611413658 10.3556233616676
83.3025950416923 10.4014189140429
83.3310289420187 10.3181542733605
83.3594628423452 10.38643127872
83.3878967426717 10.4122433173316
83.4163306429982 10.3672804113631
83.4447645433247 10.4397206487568
83.4731984436512 10.405582146077
83.5016323439777 10.2981707595967
83.5300662443042 10.2348896326781
83.5585001446307 10.3622845329222
83.5869340449572 10.3564560080744
83.6153679452837 10.2948401739694
83.6438018456101 10.4263983062476
83.6722357459366 10.3481295440062
83.7006696462631 10.2099102404734
83.7291035465896 10.292342234749
83.7575374469161 10.3081625164786
83.7859713472426 10.287346356308
83.8144052475691 10.4788550298775
83.8428391478956 10.4988385436413
83.8712730482221 10.2756893066125
83.8997069485486 10.3289786766492
83.928140848875 10.3606192401085
83.9565747492015 10.3839333394996
83.985008649528 10.3747742290245
84.0134425498545 10.4846835547253
84.041876450181 10.4180718421794
84.0703103505075 10.2631996105101
84.098744250834 10.320652212581
84.1271781511605 10.3481295440062
84.155612051487 10.4355574167227
84.1840459518135 10.363117179329
84.21247985214 10.3289786766492
84.2409137524664 10.4680306265888
84.2693476527929 10.4430512343841
84.2977815531194 10.4638673945547
84.3262154534459 10.5013364828617
84.3546493537724 10.566282902594
84.3830832540989 10.5254832286596
84.4115171544254 10.6137437477829
84.4399510547519 10.5446340960166
84.4683849550784 10.6145763941898
84.4968188554049 10.9559614209875
84.5252527557313 11.0633728074678
84.5536866560578 11.1174948239113
84.5821205563843 11.2398938457144
84.6105544567108 11.3131667295149
84.6389883570373 11.274864994801
84.6674222573638 11.3681213923653
84.6958561576903 11.4513860330477
84.7242900580168 11.4039251878587
84.7527239583433 11.2756976412079
84.7811578586698 11.1657883155071
84.8095917589962 11.3323175968719
84.8380256593227 11.1416415697092
84.8664595596492 11.2024247574074
84.8948934599757 11.1724494867617
84.9233273603022 11.1982615253733
84.9517612606287 10.9659531778694
84.9801951609552 11.2174123927302
