10.010866440 3769.0
10.032599320 3879.0
10.054332200 3852.0
10.076065080 3864.0
10.097797960 3805.0
10.119530840 3833.0
10.141263720 3756.0
10.162996600 3867.0
10.184729480 3793.0
10.206462360 3735.0
10.228195240 3821.0
10.249928120 3742.0
10.271661000 3741.0
10.293393880 3678.0
10.315126760 3698.0
10.336859640 3849.0
10.358592520 3800.0
10.380325400 3779.0
10.402058280 3761.0
10.423791160 3645.0
10.445524040 3779.0
10.467256920 3730.0
10.488989800 3690.0
10.510722680 3729.0
10.532455560 3658.0
10.554188440 3699.0
10.575921320 3787.0
10.597654200 3734.0
10.619387080 3764.0
10.641119960 3719.0
10.662852840 3809.0
10.684585720 3682.0
10.706318600 3779.0
10.728051480 3635.0
10.749784360 3653.0
10.771517240 3809.0
10.793250120 3745.0
10.814983000 3746.0
10.836715880 3704.0
10.858448760 3571.0
10.880181640 3557.0
10.901914520 3725.0
10.923647400 3725.0
10.945380280 3730.0
10.967113160 3573.0
10.988846040 3620.0
11.010578920 3674.0
11.032311800 3701.0
11.054044680 3684.0
11.075777560 3686.0
11.097510440 3628.0
11.119243320 3595.0
11.140976200 3641.0
11.162709080 3589.0
11.184441960 3531.0
11.206174840 3721.0
11.227907720 3642.0
11.249640600 3492.0
11.271373480 3670.0
11.293106360 3504.0
11.314839240 3659.0
11.336572120 3713.0
11.358305000 3563.0
11.380037880 3640.0
11.401770760 3663.0
11.423503640 3629.0
11.445236520 3602.0
11.466969400 3526.0
11.488702280 3548.0
11.510435160 3540.0
11.532168040 3671.0
11.553900920 3637.0
11.575633800 3563.0
11.597366680 3490.0
11.619099560 3541.0
11.640832440 3578.0
11.662565320 3560.0
11.684298200 3451.0
11.706031080 3597.0
11.727763960 3502.0
11.749496840 3544.0
11.771229720 3577.0
11.792962600 3497.0
11.814695480 3630.0
11.836428360 3581.0
11.858161240 3585.0
11.879894120 3576.0
11.901627000 3522.0
11.923359880 3510.0
11.945092760 3468.0
11.966825640 3474.0
11.988558520 3546.0
12.010291400 3406.0
12.032024280 3451.0
12.053757160 3446.0
12.075490040 3493.0
12.097222920 3531.0
12.118955800 3454.0
12.140688680 3490.0
12.162421560 3506.0
12.184154440 3469.0
12.205887320 3461.0
12.227620200 3452.0
12.249353080 3393.0
12.271085960 3435.0
12.292818840 3410.0
12.314551720 3427.0
12.336284600 3459.0
12.358017480 3423.0
12.379750360 3418.0
12.401483240 3396.0
12.423216120 3496.0
12.444949000 3410.0
12.466681880 3413.0
12.488414760 3326.0
12.510147640 3364.0
12.531880520 3272.0
12.553613400 3474.0
12.575346280 3338.0
12.597079160 3390.0
12.618812040 3385.0
12.640544920 3396.0
12.662277800 3243.0
12.684010680 3243.0
12.705743560 3250.0
12.727476440 3424.0
12.749209320 3309.0
12.770942200 3430.0
12.792675080 3399.0
12.814407960 3428.0
12.836140840 3203.0
12.857873720 3250.0
12.879606600 3278.0
12.901339480 3342.0
12.923072360 3265.0
12.944805240 3435.0
12.966538120 3263.0
12.988271000 3317.0
13.010003880 3322.0
13.031736760 3286.0
13.053469640 3277.0
13.075202520 3244.0
13.096935400 3273.0
13.118668280 3228.0
13.140401160 3332.0
13.162134040 3162.0
13.183866920 3249.0
13.205599800 3242.0
13.227332680 3162.0
13.249065560 3243.0
13.270798440 3213.0
13.292531320 3190.0
13.314264200 3182.0
13.335997080 3214.0
13.357729960 3288.0
13.379462840 3130.0
13.401195720 3319.0
13.422928600 3236.0
13.444661480 3291.0
13.466394360 3138.0
13.488127240 3298.0
13.509860120 3266.0
13.531593000 3224.0
13.553325880 3247.0
13.575058760 3305.0
13.596791640 3249.0
13.618524520 3191.0
13.640257400 3212.0
13.661990280 3144.0
13.683723160 3161.0
13.705456040 3048.0
13.727188920 3236.0
13.748921800 3186.0
13.770654680 3152.0
13.792387560 3107.0
13.814120440 3156.0
13.835853320 3111.0
13.857586200 3099.0
13.879319080 3174.0
13.901051960 3139.0
13.922784840 3102.0
13.944517720 3082.0
13.966250600 3251.0
13.987983480 3135.0
14.009716360 3125.0
14.031449240 3125.0
14.053182120 3166.0
14.074915000 3078.0
14.096647880 3023.0
14.118380760 3112.0
14.140113640 3077.0
14.161846520 3041.0
14.183579400 2940.0
14.205312280 3032.0
14.227045160 3016.0
14.248778040 2996.0
14.270510920 3063.0
14.292243800 3039.0
14.313976680 3007.0
14.335709560 2957.0
14.357442440 2977.0
14.379175320 3085.0
14.400908200 3049.0
14.422641080 2977.0
14.444373960 2971.0
14.466106840 2973.0
14.487839720 3039.0
14.509572600 3037.0
14.531305480 3003.0
14.553038360 2943.0
14.574771240 3159.0
14.596504120 2921.0
14.618237000 2938.0
14.639969880 2958.0
14.661702760 3068.0
14.683435640 2984.0
14.705168520 2890.0
14.726901400 2979.0
14.748634280 2978.0
14.770367160 2996.0
14.792100040 2938.0
14.813832920 2920.0
14.835565800 2962.0
14.857298680 2935.0
14.879031560 3067.0
14.900764440 2899.0
14.922497320 2931.0
14.944230200 2989.0
14.965963080 2980.0
14.987695960 2857.0
15.009428840 3016.0
15.031161720 2963.0
15.052894600 2956.0
15.074627480 2998.0
15.096360360 2871.0
15.118093240 2831.0
15.139826120 2881.0
15.161559000 2918.0
15.183291880 2911.0
15.205024760 2806.0
15.226757640 2856.0
15.248490520 2744.0
15.270223400 2863.0
15.291956280 2927.0
15.313689160 2779.0
15.335422040 2879.0
15.357154920 2879.0
15.378887800 2872.0
15.400620680 2880.0
15.422353560 2786.0
15.444086440 2813.0
15.465819320 2766.0
15.487552200 2821.0
15.509285080 2735.0
15.531017960 2803.0
15.552750840 2765.0
15.574483720 2827.0
15.596216600 2806.0
15.617949480 2691.0
15.639682360 2817.0
15.661415240 2621.0
15.683148120 2684.0
15.704881000 2740.0
15.726613880 2706.0
15.748346760 2785.0
15.770079640 2792.0
15.791812520 2745.0
15.813545400 2890.0
15.835278280 2806.0
15.857011160 2732.0
15.878744040 2787.0
15.900476920 2865.0
15.922209800 2806.0
15.943942680 2702.0
15.965675560 2708.0
15.987408440 2668.0
16.009141320 2836.0
16.030874200 2718.0
16.052607080 2728.0
16.074339960 2712.0
16.096072840 2718.0
16.117805720 2712.0
16.139538600 2750.0
16.161271480 2713.0
16.183004360 2789.0
16.204737240 2680.0
16.226470120 2677.0
16.248203000 2699.0
16.269935880 2651.0
16.291668760 2654.0
16.313401640 2657.0
16.335134520 2616.0
16.356867400 2580.0
16.378600280 2629.0
16.400333160 2722.0
16.422066040 2589.0
16.443798920 2730.0
16.465531800 2638.0
16.487264680 2673.0
16.508997560 2521.0
16.530730440 2640.0
16.552463320 2604.0
16.574196200 2584.0
16.595929080 2530.0
16.617661960 2554.0
16.639394840 2542.0
16.661127720 2539.0
16.682860600 2603.0
16.704593480 2540.0
16.726326360 2645.0
16.748059240 2588.0
16.769792120 2608.0
16.791525000 2486.0
16.813257880 2580.0
16.834990760 2628.0
16.856723640 2585.0
16.878456520 2527.0
16.900189400 2527.0
16.921922280 2412.0
16.943655160 2465.0
16.965388040 2490.0
16.987120920 2533.0
17.008853800 2448.0
17.030586680 2484.0
17.052319560 2428.0
17.074052440 2463.0
17.095785320 2513.0
17.117518200 2533.0
17.139251080 2422.0
17.160983960 2573.0
17.182716840 2420.0
17.204449720 2515.0
17.226182600 2562.0
17.247915480 2417.0
17.269648360 2440.0
17.291381240 2416.0
17.313114120 2452.0
17.334847000 2516.0
17.356579880 2425.0
17.378312760 2452.0
17.400045640 2510.0
17.421778520 2460.0
17.443511400 2535.0
17.465244280 2464.0
17.486977160 2486.0
17.508710040 2437.0
17.530442920 2449.0
17.552175800 2528.0
17.573908680 2450.0
17.595641560 2427.0
17.617374440 2380.0
17.639107320 2455.0
17.660840200 2471.0
17.682573080 2374.0
17.704305960 2396.0
17.726038840 2410.0
17.747771720 2449.0
17.769504600 2522.0
17.791237480 2460.0
17.812970360 2416.0
17.834703240 2372.0
17.856436120 2395.0
17.878169000 2376.0
17.899901880 2364.0
17.921634760 2363.0
17.943367640 2346.0
17.965100520 2393.0
17.986833400 2432.0
18.008566280 2378.0
18.030299160 2470.0
18.052032040 2336.0
18.073764920 2404.0
18.095497800 2401.0
18.117230680 2279.0
18.138963560 2386.0
18.160696440 2360.0
18.182429320 2407.0
18.204162200 2331.0
18.225895080 2314.0
18.247627960 2409.0
18.269360840 2265.0
18.291093720 2273.0
18.312826600 2319.0
18.334559480 2359.0
18.356292360 2259.0
18.378025240 2258.0
18.399758120 2307.0
18.421491000 2342.0
18.443223880 2313.0
18.464956760 2324.0
18.486689640 2333.0
18.508422520 2184.0
18.530155400 2375.0
18.551888280 2338.0
18.573621160 2325.0
18.595354040 2297.0
18.617086920 2329.0
18.638819800 2249.0
18.660552680 2281.0
18.682285560 2260.0
18.704018440 2249.0
18.725751320 2198.0
18.747484200 2325.0
18.769217080 2207.0
18.790949960 2286.0
18.812682840 2243.0
18.834415720 2226.0
18.856148600 2239.0
18.877881480 2201.0
18.899614360 2283.0
18.921347240 2248.0
18.943080120 2256.0
18.964813000 2322.0
18.986545880 2299.0
19.008278760 2176.0
19.030011640 2252.0
19.051744520 2163.0
19.073477400 2220.0
19.095210280 2319.0
19.116943160 2217.0
19.138676040 2195.0
19.160408920 2232.0
19.182141800 2300.0
19.203874680 2289.0
19.225607560 2255.0
19.247340440 2308.0
19.269073320 2224.0
19.290806200 2274.0
19.312539080 2279.0
19.334271960 2250.0
19.356004840 2251.0
19.377737720 2237.0
19.399470600 2151.0
19.421203480 2160.0
19.442936360 2226.0
19.464669240 2208.0
19.486402120 2158.0
19.508135000 2198.0
19.529867880 2254.0
19.551600760 2163.0
19.573333640 2182.0
19.595066520 2133.0
19.616799400 2139.0
19.638532280 2179.0
19.660265160 2190.0
19.681998040 2112.0
19.703730920 2195.0
19.725463800 2159.0
19.747196680 2176.0
19.768929560 2220.0
19.790662440 2093.0
19.812395320 2219.0
19.834128200 2111.0
19.855861080 2100.0
19.877593960 2035.0
19.899326840 2116.0
19.921059720 2176.0
19.942792600 2199.0
19.964525480 2133.0
19.986258360 2106.0
20.007991240 2209.0
20.029724120 2128.0
20.051457000 2164.0
20.073189880 2187.0
20.094922760 2162.0
20.116655640 2177.0
20.138388520 2131.0
20.160121400 2138.0
20.181854280 2112.0
20.203587160 2115.0
20.225320040 2121.0
20.247052920 2091.0
20.268785800 2146.0
20.290518680 2156.0
20.312251560 2131.0
20.333984440 2193.0
20.355717320 2104.0
20.377450200 2126.0
20.399183080 2196.0
20.420915960 2117.0
20.442648840 2162.0
20.464381720 2071.0
20.486114600 2080.0
20.507847480 2148.0
20.529580360 2127.0
20.551313240 2042.0
20.573046120 2058.0
20.594779000 2152.0
20.616511880 2135.0
20.638244760 2052.0
20.659977640 2084.0
20.681710520 2137.0
20.703443400 2073.0
20.725176280 2039.0
20.746909160 2039.0
20.768642040 2088.0
20.790374920 2035.0
20.812107800 2066.0
20.833840680 2105.0
20.855573560 2063.0
20.877306440 2095.0
20.899039320 1985.0
20.920772200 2084.0
20.942505080 2172.0
20.964237960 2034.0
20.985970840 2095.0
21.007703720 2071.0
21.029436600 1981.0
21.051169480 2167.0
21.072902360 2108.0
21.094635240 2063.0
21.116368120 1990.0
21.138101000 2100.0
21.159833880 2062.0
21.181566760 2040.0
21.203299640 2037.0
21.225032520 2100.0
21.246765400 2077.0
21.268498280 1981.0
21.290231160 2052.0
21.311964040 2052.0
21.333696920 2044.0
21.355429800 2090.0
21.377162680 2039.0
21.398895560 2051.0
21.420628440 2029.0
21.442361320 1925.0
21.464094200 1923.0
21.485827080 2042.0
21.507559960 2036.0
21.529292840 1882.0
21.551025720 2040.0
21.572758600 2155.0
21.594491480 2017.0
21.616224360 2043.0
21.637957240 2041.0
21.659690120 2103.0
21.681423000 2073.0
21.703155880 2029.0
21.724888760 2152.0
21.746621640 2121.0
21.768354520 2123.0
21.790087400 2049.0
21.811820280 2061.0
21.833553160 2104.0
21.855286040 2064.0
21.877018920 2049.0
21.898751800 2058.0
21.920484680 1987.0
21.942217560 2052.0
21.963950440 2037.0
21.985683320 2085.0
22.007416200 2064.0
22.029149080 2041.0
22.050881960 1993.0
22.072614840 2020.0
22.094347720 2104.0
22.116080600 2047.0
22.137813480 1966.0
22.159546360 2088.0
22.181279240 1987.0
22.203012120 2041.0
22.224745000 2020.0
22.246477880 2064.0
22.268210760 2048.0
22.289943640 2027.0
22.311676520 2009.0
22.333409400 1961.0
22.355142280 2022.0
22.376875160 1985.0
22.398608040 2052.0
22.420340920 2008.0
22.442073800 2075.0
22.463806680 2064.0
22.485539560 2029.0
22.507272440 2047.0
22.529005320 2017.0
22.550738200 2073.0
22.572471080 2073.0
22.594203960 2108.0
22.615936840 1974.0
22.637669720 1998.0
22.659402600 2004.0
22.681135480 2038.0
22.702868360 1963.0
22.724601240 1998.0
22.746334120 2010.0
22.768067000 2063.0
22.789799880 2002.0
22.811532760 1994.0
22.833265640 1944.0
22.854998520 1915.0
22.876731400 2079.0
22.898464280 1976.0
22.920197160 1988.0
22.941930040 2069.0
22.963662920 2071.0
22.985395800 1979.0
23.007128680 1955.0
23.028861560 2012.0
23.050594440 2023.0
23.072327320 2038.0
23.094060200 2064.0
23.115793080 2081.0
23.137525960 2122.0
23.159258840 2011.0
23.180991720 2004.0
23.202724600 2064.0
23.224457480 2062.0
23.246190360 2040.0
23.267923240 2207.0
23.289656120 2152.0
23.311389000 2106.0
23.333121880 2164.0
23.354854760 2214.0
23.376587640 2247.0
23.398320520 2295.0
23.420053400 2203.0
23.441786280 2230.0
23.463519160 2323.0
23.485252040 2320.0
23.506984920 2305.0
23.528717800 2368.0
23.550450680 2346.0
23.572183560 2422.0
23.593916440 2516.0
23.615649320 2502.0
23.637382200 2597.0
23.659115080 2740.0
23.680847960 2777.0
23.702580840 2803.0
23.724313720 3014.0
23.746046600 3262.0
23.767779480 3438.0
23.789512360 3653.0
23.811245240 3866.0
23.832978120 4261.0
23.854711000 4722.0
23.876443880 5409.0
23.898176760 6136.0
23.919909640 7233.0
23.941642520 8810.0
23.963375400 10578.0
23.985108280 12456.0
24.006841160 14681.0
24.028574040 17362.0
24.050306920 20685.0
24.072039800 23700.0
24.093772680 26228.0
24.115505560 28658.0
24.137238440 29143.0
24.158971320 27453.0
24.180704200 23733.0
24.202437080 19225.0
24.224169960 15510.0
24.245902840 12102.0
24.267635720 8763.0
24.289368600 7015.0
24.311101480 5889.0
24.332834360 4971.0
24.354567240 4291.0
24.376300120 3957.0
24.398033000 3599.0
24.419765880 3393.0
24.441498760 3068.0
24.463231640 2981.0
24.484964520 2912.0
24.506697400 2622.0
24.528430280 2561.0
24.550163160 2433.0
24.571896040 2567.0
24.593628920 2370.0
24.615361800 2424.0
24.637094680 2235.0
24.658827560 2296.0
24.680560440 2229.0
24.702293320 2176.0
24.724026200 2237.0
24.745759080 2264.0
24.767491960 2200.0
24.789224840 2229.0
24.810957720 2110.0
24.832690600 2187.0
24.854423480 2074.0
24.876156360 2111.0
24.897889240 2088.0
24.919622120 2168.0
24.941355000 2036.0
24.963087880 2064.0
24.984820760 2101.0
25.006553640 2126.0
25.028286520 2158.0
25.050019400 2067.0
25.071752280 2114.0
25.093485160 2211.0
25.115218040 2181.0
25.136950920 2148.0
25.158683800 2218.0
25.180416680 2217.0
25.202149560 2264.0
25.223882440 2221.0
25.245615320 2138.0
25.267348200 2150.0
25.289081080 2102.0
25.310813960 2095.0
25.332546840 2080.0
25.354279720 2055.0
25.376012600 2064.0
25.397745480 1961.0
25.419478360 2110.0
25.441211240 2041.0
25.462944120 2103.0
25.484677000 2012.0
25.506409880 2045.0
25.528142760 2016.0
25.549875640 2003.0
25.571608520 2045.0
25.593341400 2085.0
25.615074280 2057.0
25.636807160 2054.0
25.658540040 2046.0
25.680272920 2077.0
25.702005800 1990.0
25.723738680 1970.0
25.745471560 1959.0
25.767204440 2064.0
25.788937320 2109.0
25.810670200 2024.0
25.832403080 2055.0
25.854135960 1994.0
25.875868840 1997.0
25.897601720 1970.0
25.919334600 1977.0
25.941067480 2055.0
25.962800360 2020.0
25.984533240 1937.0
26.006266120 1955.0
26.027999000 2076.0
26.049731880 2073.0
26.071464760 2049.0
26.093197640 2062.0
26.114930520 2014.0
26.136663400 2028.0
26.158396280 1973.0
26.180129160 1993.0
26.201862040 2102.0
26.223594920 2039.0
26.245327800 2003.0
26.267060680 2025.0
26.288793560 1907.0
26.310526440 1924.0
26.332259320 1974.0
26.353992200 1974.0
26.375725080 2014.0
26.397457960 1991.0
26.419190840 2007.0
26.440923720 1963.0
26.462656600 1935.0
26.484389480 1992.0
26.506122360 1952.0
26.527855240 1966.0
26.549588120 1961.0
26.571321000 1914.0
26.593053880 1978.0
26.614786760 2106.0
26.636519640 2024.0
26.658252520 1947.0
26.679985400 1975.0
26.701718280 2030.0
26.723451160 2076.0
26.745184040 1971.0
26.766916920 2064.0
26.788649800 2064.0
26.810382680 2100.0
26.832115560 2082.0
26.853848440 2100.0
26.875581320 2011.0
26.897314200 2069.0
26.919047080 2127.0
26.940779960 2146.0
26.962512840 2103.0
26.984245720 2204.0
27.005978600 2182.0
27.027711480 2208.0
27.049444360 2237.0
27.071177240 2177.0
27.092910120 2224.0
27.114643000 2323.0
27.136375880 2296.0
27.158108760 2279.0
27.179841640 2293.0
27.201574520 2339.0
27.223307400 2396.0
27.245040280 2412.0
27.266773160 2431.0
27.288506040 2331.0
27.310238920 2409.0
27.331971800 2458.0
27.353704680 2442.0
27.375437560 2541.0
27.397170440 2657.0
27.418903320 2730.0
27.440636200 2618.0
27.462369080 2758.0
27.484101960 2994.0
27.505834840 3080.0
27.527567720 3221.0
27.549300600 3398.0
27.571033480 3733.0
27.592766360 3896.0
27.614499240 4310.0
27.636232120 4712.0
27.657965000 5536.0
27.679697880 6190.0
27.701430760 7217.0
27.723163640 8673.0
27.744896520 10745.0
27.766629400 13376.0
27.788362280 16174.0
27.810095160 20572.0
27.831828040 25548.0
27.853560920 31245.0
27.875293800 37770.0
27.897026680 43686.0
27.918759560 48939.0
27.940492440 50765.0
27.962225320 47840.0
27.983958200 41901.0
28.005691080 34362.0
28.027423960 27372.0
28.049156840 20818.0
28.070889720 14904.0
28.092622600 11074.0
28.114355480 8761.0
28.136088360 7051.0
28.157821240 5976.0
28.179554120 5102.0
28.201287000 4716.0
28.223019880 4252.0
28.244752760 3869.0
28.266485640 3470.0
28.288218520 3355.0
28.309951400 3189.0
28.331684280 3067.0
28.353417160 2839.0
28.375150040 2649.0
28.396882920 2626.0
28.418615800 2642.0
28.440348680 2518.0
28.462081560 2463.0
28.483814440 2376.0
28.505547320 2339.0
28.527280200 2418.0
28.549013080 2344.0
28.570745960 2285.0
28.592478840 2184.0
28.614211720 2311.0
28.635944600 2272.0
28.657677480 2236.0
28.679410360 2164.0
28.701143240 2180.0
28.722876120 2134.0
28.744609000 2115.0
28.766341880 2159.0
28.788074760 2077.0
28.809807640 2070.0
28.831540520 2133.0
28.853273400 2197.0
28.875006280 2066.0
28.896739160 2130.0
28.918472040 2043.0
28.940204920 2113.0
28.961937800 2066.0
28.983670680 2077.0
29.005403560 2078.0
29.027136440 2070.0
29.048869320 2060.0
29.070602200 2025.0
29.092335080 2033.0
29.114067960 2086.0
29.135800840 1956.0
29.157533720 1980.0
29.179266600 2005.0
29.200999480 1978.0
29.222732360 2027.0
29.244465240 1983.0
29.266198120 1988.0
29.287931000 1958.0
29.309663880 1971.0
29.331396760 2004.0
29.353129640 1966.0
29.374862520 1966.0
29.396595400 1997.0
29.418328280 1992.0
29.440061160 2000.0
29.461794040 2006.0
29.483526920 1960.0
29.505259800 1932.0
29.526992680 1938.0
29.548725560 1923.0
29.570458440 1923.0
29.592191320 1929.0
29.613924200 2024.0
29.635657080 1972.0
29.657389960 1942.0
29.679122840 1957.0
29.700855720 1876.0
29.722588600 2027.0
29.744321480 1920.0
29.766054360 1957.0
29.787787240 1841.0
29.809520120 2014.0
29.831253000 1889.0
29.852985880 1929.0
29.874718760 1996.0
29.896451640 1966.0
29.918184520 1955.0
29.939917400 1938.0
29.961650280 1989.0
29.983383160 1830.0
30.005116040 1930.0
30.026848920 1938.0
30.048581800 1908.0
30.070314680 1943.0
30.092047560 1964.0
30.113780440 1891.0
30.135513320 1892.0
30.157246200 1827.0
30.178979080 1889.0
30.200711960 1841.0
30.222444840 1967.0
30.244177720 1925.0
30.265910600 1911.0
30.287643480 1902.0
30.309376360 1877.0
30.331109240 1882.0
30.352842120 1951.0
30.374575000 1872.0
30.396307880 1928.0
30.418040760 1867.0
30.439773640 1844.0
30.461506520 1921.0
30.483239400 1960.0
30.504972280 1896.0
30.526705160 1912.0
30.548438040 1880.0
30.570170920 1868.0
30.591903800 1909.0
30.613636680 1853.0
30.635369560 1827.0
30.657102440 1875.0
30.678835320 1881.0
30.700568200 1764.0
30.722301080 1879.0
30.744033960 1805.0
30.765766840 1880.0
30.787499720 1910.0
30.809232600 1944.0
30.830965480 1902.0
30.852698360 1771.0
30.874431240 1831.0
30.896164120 1901.0
30.917897000 1895.0
30.939629880 1823.0
30.961362760 1783.0
30.983095640 1871.0
31.004828520 1831.0
31.026561400 1828.0
31.048294280 1867.0
31.070027160 1843.0
31.091760040 1830.0
31.113492920 1848.0
31.135225800 1838.0
31.156958680 1823.0
31.178691560 1851.0
31.200424440 1766.0
31.222157320 1861.0
31.243890200 1822.0
31.265623080 1892.0
31.287355960 1791.0
31.309088840 1756.0
31.330821720 1858.0
31.352554600 1842.0
31.374287480 1717.0
31.396020360 1798.0
31.417753240 1808.0
31.439486120 1743.0
31.461219000 1807.0
31.482951880 1748.0
31.504684760 1865.0
31.526417640 1793.0
31.548150520 1821.0
31.569883400 1778.0
31.591616280 1825.0
31.613349160 1801.0
31.635082040 1861.0
31.656814920 1812.0
31.678547800 1782.0
31.700280680 1810.0
31.722013560 1830.0
31.743746440 1819.0
31.765479320 1744.0
31.787212200 1872.0
31.808945080 1825.0
31.830677960 1864.0
31.852410840 1763.0
31.874143720 1770.0
31.895876600 1797.0
31.917609480 1751.0
31.939342360 1908.0
31.961075240 1842.0
31.982808120 1793.0
32.004541000 1770.0
32.026273880 1752.0
32.048006760 1692.0
32.069739640 1791.0
32.091472520 1708.0
32.113205400 1803.0
32.134938280 1739.0
32.156671160 1859.0
32.178404040 1875.0
32.200136920 1784.0
32.221869800 1865.0
32.243602680 1777.0
32.265335560 1728.0
32.287068440 1844.0
32.308801320 1786.0
32.330534200 1811.0
32.352267080 1737.0
32.373999960 1870.0
32.395732840 1860.0
32.417465720 1756.0
32.439198600 1719.0
32.460931480 1823.0
32.482664360 1792.0
32.504397240 1787.0
32.526130120 1808.0
32.547863000 1754.0
32.569595880 1696.0
32.591328760 1757.0
32.613061640 1807.0
32.634794520 1705.0
32.656527400 1831.0
32.678260280 1810.0
32.699993160 1859.0
32.721726040 1812.0
32.743458920 1738.0
32.765191800 1735.0
32.786924680 1770.0
32.808657560 1704.0
32.830390440 1732.0
32.852123320 1841.0
32.873856200 1792.0
32.895589080 1712.0
32.917321960 1726.0
32.939054840 1825.0
32.960787720 1716.0
32.982520600 1822.0
33.004253480 1724.0
33.025986360 1703.0
33.047719240 1832.0
33.069452120 1804.0
33.091185000 1787.0
33.112917880 1728.0
33.134650760 1700.0
33.156383640 1761.0
33.178116520 1765.0
33.199849400 1821.0
33.221582280 1727.0
33.243315160 1781.0
33.265048040 1795.0
33.286780920 1825.0
33.308513800 1730.0
33.330246680 1787.0
33.351979560 1774.0
33.373712440 1756.0
33.395445320 1734.0
33.417178200 1820.0
33.438911080 1730.0
33.460643960 1771.0
33.482376840 1808.0
33.504109720 1736.0
33.525842600 1802.0
33.547575480 1820.0
33.569308360 1766.0
33.591041240 1757.0
33.612774120 1778.0
33.634507000 1725.0
33.656239880 1710.0
33.677972760 1659.0
33.699705640 1762.0
33.721438520 1705.0
33.743171400 1702.0
33.764904280 1801.0
33.786637160 1759.0
33.808370040 1801.0
33.830102920 1673.0
33.851835800 1736.0
33.873568680 1766.0
33.895301560 1707.0
33.917034440 1742.0
33.938767320 1759.0
33.960500200 1755.0
33.982233080 1788.0
34.003965960 1768.0
34.025698840 1754.0
34.047431720 1688.0
34.069164600 1719.0
34.090897480 1739.0
34.112630360 1657.0
34.134363240 1663.0
34.156096120 1744.0
34.177829000 1697.0
34.199561880 1733.0
34.221294760 1820.0
34.243027640 1699.0
34.264760520 1711.0
34.286493400 1640.0
34.308226280 1722.0
34.329959160 1724.0
34.351692040 1743.0
34.373424920 1656.0
34.395157800 1727.0
34.416890680 1672.0
34.438623560 1703.0
34.460356440 1789.0
34.482089320 1754.0
34.503822200 1699.0
34.525555080 1721.0
34.547287960 1718.0
34.569020840 1728.0
34.590753720 1687.0
34.612486600 1765.0
34.634219480 1733.0
34.655952360 1673.0
34.677685240 1637.0
34.699418120 1697.0
34.721151000 1750.0
34.742883880 1683.0
34.764616760 1740.0
34.786349640 1762.0
34.808082520 1707.0
34.829815400 1754.0
34.851548280 1737.0
34.873281160 1657.0
34.895014040 1781.0
34.916746920 1796.0
34.938479800 1686.0
34.960212680 1763.0
34.981945560 1729.0
35.003678440 1703.0
35.025411320 1778.0
35.047144200 1660.0
35.068877080 1634.0
35.090609960 1698.0
35.112342840 1662.0
35.134075720 1687.0
35.155808600 1701.0
35.177541480 1775.0
35.199274360 1732.0
35.221007240 1728.0
35.242740120 1804.0
35.264473000 1656.0
35.286205880 1693.0
35.307938760 1645.0
35.329671640 1639.0
35.351404520 1698.0
35.373137400 1712.0
35.394870280 1651.0
35.416603160 1719.0
35.438336040 1622.0
35.460068920 1629.0
35.481801800 1679.0
35.503534680 1714.0
35.525267560 1757.0
35.547000440 1703.0
35.568733320 1755.0
35.590466200 1629.0
35.612199080 1748.0
35.633931960 1682.0
35.655664840 1675.0
35.677397720 1762.0
35.699130600 1733.0
35.720863480 1756.0
35.742596360 1624.0
35.764329240 1690.0
35.786062120 1685.0
35.807795000 1633.0
35.829527880 1639.0
35.851260760 1804.0
35.872993640 1744.0
35.894726520 1764.0
35.916459400 1787.0
35.938192280 1842.0
35.959925160 1790.0
35.981658040 1755.0
36.003390920 1737.0
36.025123800 1735.0
36.046856680 1704.0
36.068589560 1759.0
36.090322440 1670.0
36.112055320 1757.0
36.133788200 1681.0
36.155521080 1654.0
36.177253960 1655.0
36.198986840 1801.0
36.220719720 1704.0
36.242452600 1606.0
36.264185480 1736.0
36.285918360 1633.0
36.307651240 1723.0
36.329384120 1765.0
36.351117000 1773.0
36.372849880 1736.0
36.394582760 1743.0
36.416315640 1760.0
36.438048520 1695.0
36.459781400 1680.0
36.481514280 1708.0
36.503247160 1751.0
36.524980040 1698.0
36.546712920 1778.0
36.568445800 1670.0
36.590178680 1690.0
36.611911560 1633.0
36.633644440 1695.0
36.655377320 1606.0
36.677110200 1607.0
36.698843080 1607.0
36.720575960 1646.0
36.742308840 1626.0
36.764041720 1662.0
36.785774600 1703.0
36.807507480 1732.0
36.829240360 1719.0
36.850973240 1624.0
36.872706120 1683.0
36.894439000 1664.0
36.916171880 1654.0
36.937904760 1690.0
36.959637640 1635.0
36.981370520 1704.0
37.003103400 1676.0
37.024836280 1669.0
37.046569160 1716.0
37.068302040 1619.0
37.090034920 1711.0
37.111767800 1704.0
37.133500680 1688.0
37.155233560 1737.0
37.176966440 1709.0
37.198699320 1736.0
37.220432200 1716.0
37.242165080 1682.0
37.263897960 1731.0
37.285630840 1668.0
37.307363720 1718.0
37.329096600 1660.0
37.350829480 1799.0
37.372562360 1805.0
37.394295240 1651.0
37.416028120 1736.0
37.437761000 1705.0
37.459493880 1615.0
37.481226760 1753.0
37.502959640 1791.0
37.524692520 1727.0
37.546425400 1708.0
37.568158280 1729.0
37.589891160 1756.0
37.611624040 1748.0
37.633356920 1760.0
37.655089800 1627.0
37.676822680 1598.0
37.698555560 1711.0
37.720288440 1674.0
37.742021320 1729.0
37.763754200 1657.0
37.785487080 1647.0
37.807219960 1736.0
37.828952840 1701.0
37.850685720 1629.0
37.872418600 1671.0
37.894151480 1644.0
37.915884360 1688.0
37.937617240 1705.0
37.959350120 1681.0
37.981083000 1664.0
38.002815880 1584.0
38.024548760 1744.0
38.046281640 1707.0
38.068014520 1709.0
38.089747400 1722.0
38.111480280 1708.0
38.133213160 1756.0
38.154946040 1677.0
38.176678920 1764.0
38.198411800 1643.0
38.220144680 1667.0
38.241877560 1729.0
38.263610440 1710.0
38.285343320 1656.0
38.307076200 1715.0
38.328809080 1763.0
38.350541960 1757.0
38.372274840 1721.0
38.394007720 1717.0
38.415740600 1765.0
38.437473480 1692.0
38.459206360 1739.0
38.480939240 1864.0
38.502672120 1791.0
38.524405000 1843.0
38.546137880 1826.0
38.567870760 1872.0
38.589603640 1846.0
38.611336520 1846.0
38.633069400 1795.0
38.654802280 1950.0
38.676535160 1828.0
38.698268040 1812.0
38.720000920 1816.0
38.741733800 1904.0
38.763466680 1875.0
38.785199560 1872.0
38.806932440 1942.0
38.828665320 1865.0
38.850398200 1932.0
38.872131080 1930.0
38.893863960 1962.0
38.915596840 1934.0
38.937329720 1922.0
38.959062600 1954.0
38.980795480 1874.0
39.002528360 1957.0
39.024261240 1889.0
39.045994120 2028.0
39.067727000 1978.0
39.089459880 1956.0
39.111192760 2056.0
39.132925640 1954.0
39.154658520 1973.0
39.176391400 2094.0
39.198124280 1958.0
39.219857160 2101.0
39.241590040 2087.0
39.263322920 2187.0
39.285055800 2100.0
39.306788680 2166.0
39.328521560 2256.0
39.350254440 2167.0
39.371987320 2399.0
39.393720200 2400.0
39.415453080 2540.0
39.437185960 2509.0
39.458918840 2710.0
39.480651720 2830.0
39.502384600 2942.0
39.524117480 3164.0
39.545850360 3260.0
39.567583240 3413.0
39.589316120 3753.0
39.611049000 4083.0
39.632781880 4425.0
39.654514760 4979.0
39.676247640 5543.0
39.697980520 6622.0
39.719713400 7283.0
39.741446280 8851.0
39.763179160 10409.0
39.784912040 12333.0
39.806644920 15102.0
39.828377800 18167.0
39.850110680 21592.0
39.871843560 25319.0
39.893576440 28613.0
39.915309320 29626.0
39.937042200 29541.0
39.958775080 27251.0
39.980507960 24644.0
40.002240840 22093.0
40.023973720 19629.0
40.045706600 17119.0
40.067439480 14061.0
40.089172360 11163.0
40.110905240 9061.0
40.132638120 7792.0
40.154371000 6402.0
40.176103880 5661.0
40.197836760 5008.0
40.219569640 4489.0
40.241302520 4149.0
40.263035400 3730.0
40.284768280 3539.0
40.306501160 3265.0
40.328234040 3075.0
40.349966920 2832.0
40.371699800 2806.0
40.393432680 2592.0
40.415165560 2519.0
40.436898440 2473.0
40.458631320 2379.0
40.480364200 2321.0
40.502097080 2250.0
40.523829960 2168.0
40.545562840 2093.0
40.567295720 2073.0
40.589028600 2115.0
40.610761480 2037.0
40.632494360 2056.0
40.654227240 1951.0
40.675960120 2074.0
40.697693000 1964.0
40.719425880 2023.0
40.741158760 1877.0
40.762891640 1941.0
40.784624520 1991.0
40.806357400 1906.0
40.828090280 1895.0
40.849823160 1879.0
40.871556040 1851.0
40.893288920 1879.0
40.915021800 1888.0
40.936754680 1950.0
40.958487560 1920.0
40.980220440 1829.0
41.001953320 1911.0
41.023686200 1886.0
41.045419080 1856.0
41.067151960 1904.0
41.088884840 1848.0
41.110617720 1806.0
41.132350600 1898.0
41.154083480 1847.0
41.175816360 1797.0
41.197549240 1863.0
41.219282120 1757.0
41.241015000 1835.0
41.262747880 1769.0
41.284480760 1821.0
41.306213640 1799.0
41.327946520 1798.0
41.349679400 1819.0
41.371412280 1829.0
41.393145160 1811.0
41.414878040 1784.0
41.436610920 1795.0
41.458343800 1745.0
41.480076680 1778.0
41.501809560 1767.0
41.523542440 1653.0
41.545275320 1812.0
41.567008200 1766.0
41.588741080 1737.0
41.610473960 1716.0
41.632206840 1814.0
41.653939720 1738.0
41.675672600 1782.0
41.697405480 1707.0
41.719138360 1728.0
41.740871240 1732.0
41.762604120 1782.0
41.784337000 1767.0
41.806069880 1725.0
41.827802760 1800.0
41.849535640 1775.0
41.871268520 1748.0
41.893001400 1761.0
41.914734280 1805.0
41.936467160 1730.0
41.958200040 1775.0
41.979932920 1820.0
42.001665800 1778.0
42.023398680 1765.0
42.045131560 1784.0
42.066864440 1783.0
42.088597320 1809.0
42.110330200 1739.0
42.132063080 1806.0
42.153795960 1766.0
42.175528840 1790.0
42.197261720 1757.0
42.218994600 1727.0
42.240727480 1814.0
42.262460360 1729.0
42.284193240 1736.0
42.305926120 1760.0
42.327659000 1771.0
42.349391880 1772.0
42.371124760 1853.0
42.392857640 1728.0
42.414590520 1807.0
42.436323400 1767.0
42.458056280 1697.0
42.479789160 1767.0
42.501522040 1828.0
42.523254920 1780.0
42.544987800 1770.0
42.566720680 1725.0
42.588453560 1825.0
42.610186440 1726.0
42.631919320 1737.0
42.653652200 1724.0
42.675385080 1818.0
42.697117960 1851.0
42.718850840 1818.0
42.740583720 1670.0
42.762316600 1726.0
42.784049480 1724.0
42.805782360 1857.0
42.827515240 1712.0
42.849248120 1805.0
42.870981000 1772.0
42.892713880 1778.0
42.914446760 1764.0
42.936179640 1734.0
42.957912520 1858.0
42.979645400 1763.0
43.001378280 1780.0
43.023111160 1747.0
43.044844040 1820.0
43.066576920 1776.0
43.088309800 1839.0
43.110042680 1740.0
43.131775560 1749.0
43.153508440 1791.0
43.175241320 1739.0
43.196974200 1825.0
43.218707080 1759.0
43.240439960 1824.0
43.262172840 1735.0
43.283905720 1732.0
43.305638600 1852.0
43.327371480 1811.0
43.349104360 1789.0
43.370837240 1820.0
43.392570120 1864.0
43.414303000 1769.0
43.436035880 1793.0
43.457768760 1748.0
43.479501640 1790.0
43.501234520 1800.0
43.522967400 1813.0
43.544700280 1877.0
43.566433160 1786.0
43.588166040 1813.0
43.609898920 1808.0
43.631631800 1813.0
43.653364680 1847.0
43.675097560 1746.0
43.696830440 1807.0
43.718563320 1858.0
43.740296200 1809.0
43.762029080 1765.0
43.783761960 1779.0
43.805494840 1798.0
43.827227720 1819.0
43.848960600 1827.0
43.870693480 1811.0
43.892426360 1767.0
43.914159240 1851.0
43.935892120 1820.0
43.957625000 1838.0
43.979357880 1815.0
44.001090760 1812.0
44.022823640 1783.0
44.044556520 1831.0
44.066289400 1815.0
44.088022280 1781.0
44.109755160 1768.0
44.131488040 1887.0
44.153220920 1899.0
44.174953800 1782.0
44.196686680 1792.0
44.218419560 1841.0
44.240152440 1841.0
44.261885320 1883.0
44.283618200 1773.0
44.305351080 1843.0
44.327083960 1841.0
44.348816840 1831.0
44.370549720 1916.0
44.392282600 1786.0
44.414015480 1880.0
44.435748360 1877.0
44.457481240 1775.0
44.479214120 1862.0
44.500947000 1825.0
44.522679880 1836.0
44.544412760 1846.0
44.566145640 1842.0
44.587878520 1853.0
44.609611400 1846.0
44.631344280 1810.0
44.653077160 1889.0
44.674810040 1806.0
44.696542920 1747.0
44.718275800 1869.0
44.740008680 1801.0
44.761741560 1818.0
44.783474440 1777.0
44.805207320 1783.0
44.826940200 1809.0
44.848673080 1815.0
44.870405960 1744.0
44.892138840 1836.0
44.913871720 1769.0
44.935604600 1800.0
44.957337480 1768.0
44.979070360 1768.0
45.000803240 1738.0
45.022536120 1814.0
45.044269000 1829.0
45.066001880 1795.0
45.087734760 1806.0
45.109467640 1742.0
45.131200520 1801.0
45.152933400 1794.0
45.174666280 1760.0
45.196399160 1864.0
45.218132040 1825.0
45.239864920 1750.0
45.261597800 1728.0
45.283330680 1780.0
45.305063560 1772.0
45.326796440 1774.0
45.348529320 1866.0
45.370262200 1742.0
45.391995080 1830.0
45.413727960 1826.0
45.435460840 1808.0
45.457193720 1778.0
45.478926600 1808.0
45.500659480 1751.0
45.522392360 1756.0
45.544125240 1836.0
45.565858120 1877.0
45.587591000 1775.0
45.609323880 1846.0
45.631056760 1806.0
45.652789640 1799.0
45.674522520 1843.0
45.696255400 1872.0
45.717988280 1853.0
45.739721160 1801.0
45.761454040 1836.0
45.783186920 1832.0
45.804919800 1791.0
45.826652680 1791.0
45.848385560 1845.0
45.870118440 1815.0
45.891851320 1827.0
45.913584200 1729.0
45.935317080 1842.0
45.957049960 1917.0
45.978782840 1840.0
46.000515720 1796.0
46.022248600 1874.0
46.043981480 1826.0
46.065714360 1753.0
46.087447240 1792.0
46.109180120 1832.0
46.130913000 1879.0
46.152645880 1792.0
46.174378760 1792.0
46.196111640 1822.0
46.217844520 1772.0
46.239577400 1876.0
46.261310280 1762.0
46.283043160 1870.0
46.304776040 1822.0
46.326508920 1840.0
46.348241800 1841.0
46.369974680 1797.0
46.391707560 1831.0
46.413440440 1935.0
46.435173320 1747.0
46.456906200 1843.0
46.478639080 1940.0
46.500371960 1885.0
46.522104840 1886.0
46.543837720 1940.0
46.565570600 2007.0
46.587303480 1997.0
46.609036360 1934.0
46.630769240 2022.0
46.652502120 2027.0
46.674235000 2067.0
46.695967880 2058.0
46.717700760 2151.0
46.739433640 2257.0
46.761166520 2328.0
46.782899400 2350.0
46.804632280 2441.0
46.826365160 2426.0
46.848098040 2532.0
46.869830920 2705.0
46.891563800 2818.0
46.913296680 3053.0
46.935029560 3214.0
46.956762440 3625.0
46.978495320 3854.0
47.000228200 4304.0
47.021961080 4940.0
47.043693960 5763.0
47.065426840 6731.0
47.087159720 7724.0
47.108892600 9387.0
47.130625480 10969.0
47.152358360 12326.0
47.174091240 13454.0
47.195824120 13643.0
47.217557000 12991.0
47.239289880 11716.0
47.261022760 10815.0
47.282755640 10154.0
47.304488520 9603.0
47.326221400 8580.0
47.347954280 7583.0
47.369687160 6259.0
47.391420040 5221.0
47.413152920 4504.0
47.434885800 4000.0
47.456618680 3584.0
47.478351560 3398.0
47.500084440 3008.0
47.521817320 2856.0
47.543550200 2706.0
47.565283080 2590.0
47.587015960 2446.0
47.608748840 2470.0
47.630481720 2259.0
47.652214600 2234.0
47.673947480 2204.0
47.695680360 2050.0
47.717413240 2059.0
47.739146120 2048.0
47.760879000 1988.0
47.782611880 1993.0
47.804344760 1923.0
47.826077640 1933.0
47.847810520 1966.0
47.869543400 1859.0
47.891276280 1914.0
47.913009160 1931.0
47.934742040 1766.0
47.956474920 1781.0
47.978207800 1862.0
47.999940680 1864.0
48.021673560 1868.0
48.043406440 1787.0
48.065139320 1802.0
48.086872200 1811.0
48.108605080 1808.0
48.130337960 1857.0
48.152070840 1802.0
48.173803720 1951.0
48.195536600 1828.0
48.217269480 1857.0
48.239002360 1839.0
48.260735240 1820.0
48.282468120 1791.0
48.304201000 1879.0
48.325933880 1839.0
48.347666760 1852.0
48.369399640 1729.0
48.391132520 1803.0
48.412865400 1819.0
48.434598280 1813.0
48.456331160 1796.0
48.478064040 1763.0
48.499796920 1820.0
48.521529800 1812.0
48.543262680 1750.0
48.564995560 1824.0
48.586728440 1804.0
48.608461320 1755.0
48.630194200 1813.0
48.651927080 1860.0
48.673659960 1780.0
48.695392840 1770.0
48.717125720 1825.0
48.738858600 1841.0
48.760591480 1764.0
48.782324360 1867.0
48.804057240 1854.0
48.825790120 1796.0
48.847523000 1900.0
48.869255880 1902.0
48.890988760 1957.0
48.912721640 2039.0
48.934454520 2051.0
48.956187400 2026.0
48.977920280 2042.0
48.999653160 2186.0
49.021386040 2176.0
49.043118920 2281.0
49.064851800 2377.0
49.086584680 2387.0
49.108317560 2537.0
49.130050440 2735.0
49.151783320 2875.0
49.173516200 3011.0
49.195249080 3154.0
49.216981960 3552.0
49.238714840 3784.0
49.260447720 4386.0
49.282180600 4869.0
49.303913480 5596.0
49.325646360 6468.0
49.347379240 7355.0
49.369112120 8459.0
49.390845000 9344.0
49.412577880 9948.0
49.434310760 10023.0
49.456043640 9441.0
49.477776520 8792.0
49.499509400 7901.0
49.521242280 7575.0
49.542975160 7235.0
49.564708040 6658.0
49.586440920 5960.0
49.608173800 5093.0
49.629906680 4580.0
49.651639560 3827.0
49.673372440 3510.0
49.695105320 3234.0
49.716838200 3031.0
49.738571080 2854.0
49.760303960 2676.0
49.782036840 2538.0
49.803769720 2408.0
49.825502600 2304.0
49.847235480 2148.0
49.868968360 2178.0
49.890701240 2099.0
49.912434120 2055.0
49.934167000 2004.0
49.955899880 1912.0
49.977632760 1864.0
49.999365640 1896.0
50.021098520 1893.0
50.042831400 1869.0
50.064564280 1774.0
50.086297160 1862.0
50.108030040 1817.0
50.129762920 1844.0
50.151495800 1856.0
50.173228680 1816.0
50.194961560 1780.0
50.216694440 1836.0
50.238427320 1765.0
50.260160200 1747.0
50.281893080 1713.0
50.303625960 1711.0
50.325358840 1711.0
50.347091720 1624.0
50.368824600 1648.0
50.390557480 1654.0
50.412290360 1679.0
50.434023240 1717.0
50.455756120 1685.0
50.477489000 1678.0
50.499221880 1684.0
50.520954760 1696.0
50.542687640 1644.0
50.564420520 1626.0
50.586153400 1724.0
50.607886280 1670.0
50.629619160 1607.0
50.651352040 1618.0
50.673084920 1730.0
50.694817800 1706.0
50.716550680 1579.0
50.738283560 1678.0
50.760016440 1600.0
50.781749320 1645.0
50.803482200 1696.0
50.825215080 1676.0
50.846947960 1675.0
50.868680840 1652.0
50.890413720 1673.0
50.912146600 1604.0
50.933879480 1689.0
50.955612360 1655.0
50.977345240 1656.0
50.999078120 1579.0
51.020811000 1617.0
51.042543880 1625.0
51.064276760 1742.0
51.086009640 1653.0
51.107742520 1651.0
51.129475400 1589.0
51.151208280 1563.0
51.172941160 1680.0
51.194674040 1674.0
51.216406920 1616.0
51.238139800 1630.0
51.259872680 1548.0
51.281605560 1634.0
51.303338440 1599.0
51.325071320 1555.0
51.346804200 1603.0
51.368537080 1569.0
51.390269960 1600.0
51.412002840 1616.0
51.433735720 1640.0
51.455468600 1578.0
51.477201480 1539.0
51.498934360 1592.0
51.520667240 1553.0
51.542400120 1592.0
51.564133000 1563.0
51.585865880 1627.0
51.607598760 1646.0
51.629331640 1624.0
51.651064520 1634.0
51.672797400 1649.0
51.694530280 1645.0
51.716263160 1643.0
51.737996040 1636.0
51.759728920 1691.0
51.781461800 1663.0
51.803194680 1578.0
51.824927560 1634.0
51.846660440 1570.0
51.868393320 1653.0
51.890126200 1607.0
51.911859080 1568.0
51.933591960 1606.0
51.955324840 1651.0
51.977057720 1513.0
51.998790600 1587.0
52.020523480 1649.0
52.042256360 1644.0
52.063989240 1622.0
52.085722120 1576.0
52.107455000 1530.0
52.129187880 1564.0
52.150920760 1639.0
52.172653640 1612.0
52.194386520 1650.0
52.216119400 1563.0
52.237852280 1615.0
52.259585160 1641.0
52.281318040 1639.0
52.303050920 1561.0
52.324783800 1604.0
52.346516680 1733.0
52.368249560 1636.0
52.389982440 1608.0
52.411715320 1535.0
52.433448200 1545.0
52.455181080 1610.0
52.476913960 1585.0
52.498646840 1567.0
52.520379720 1566.0
52.542112600 1496.0
52.563845480 1629.0
52.585578360 1556.0
52.607311240 1682.0
52.629044120 1599.0
52.650777000 1526.0
52.672509880 1597.0
52.694242760 1602.0
52.715975640 1614.0
52.737708520 1641.0
52.759441400 1612.0
52.781174280 1581.0
52.802907160 1599.0
52.824640040 1626.0
52.846372920 1499.0
52.868105800 1552.0
52.889838680 1607.0
52.911571560 1580.0
52.933304440 1559.0
52.955037320 1542.0
52.976770200 1517.0
52.998503080 1539.0
53.020235960 1545.0
53.041968840 1596.0
53.063701720 1632.0
53.085434600 1595.0
53.107167480 1555.0
53.128900360 1538.0
53.150633240 1549.0
53.172366120 1559.0
53.194099000 1544.0
53.215831880 1557.0
53.237564760 1565.0
53.259297640 1578.0
53.281030520 1591.0
53.302763400 1496.0
53.324496280 1558.0
53.346229160 1543.0
53.367962040 1508.0
53.389694920 1551.0
53.411427800 1591.0
53.433160680 1593.0
53.454893560 1571.0
53.476626440 1575.0
53.498359320 1545.0
53.520092200 1510.0
53.541825080 1561.0
53.563557960 1566.0
53.585290840 1573.0
53.607023720 1469.0
53.628756600 1515.0
53.650489480 1605.0
53.672222360 1594.0
53.693955240 1533.0
53.715688120 1542.0
53.737421000 1565.0
53.759153880 1571.0
53.780886760 1527.0
53.802619640 1513.0
53.824352520 1500.0
53.846085400 1643.0
53.867818280 1527.0
53.889551160 1506.0
53.911284040 1546.0
53.933016920 1589.0
53.954749800 1595.0
53.976482680 1614.0
53.998215560 1531.0
54.019948440 1535.0
54.041681320 1492.0
54.063414200 1563.0
54.085147080 1538.0
54.106879960 1606.0
54.128612840 1530.0
54.150345720 1546.0
54.172078600 1601.0
54.193811480 1473.0
54.215544360 1577.0
54.237277240 1510.0
54.259010120 1558.0
54.280743000 1548.0
54.302475880 1565.0
54.324208760 1470.0
54.345941640 1548.0
54.367674520 1557.0
54.389407400 1573.0
54.411140280 1538.0
54.432873160 1580.0
54.454606040 1687.0
54.476338920 1546.0
54.498071800 1576.0
54.519804680 1535.0
54.541537560 1578.0
54.563270440 1545.0
54.585003320 1518.0
54.606736200 1523.0
54.628469080 1570.0
54.650201960 1570.0
54.671934840 1513.0
54.693667720 1486.0
54.715400600 1539.0
54.737133480 1508.0
54.758866360 1558.0
54.780599240 1511.0
54.802332120 1472.0
54.824065000 1544.0
54.845797880 1547.0
54.867530760 1551.0
54.889263640 1502.0
54.910996520 1536.0
54.932729400 1505.0
54.954462280 1485.0
54.976195160 1596.0
54.997928040 1557.0
55.019660920 1550.0
55.041393800 1580.0
55.063126680 1511.0
55.084859560 1509.0
55.106592440 1570.0
55.128325320 1533.0
55.150058200 1555.0
55.171791080 1472.0
55.193523960 1497.0
55.215256840 1435.0
55.236989720 1528.0
55.258722600 1520.0
55.280455480 1550.0
55.302188360 1499.0
55.323921240 1488.0
55.345654120 1500.0
55.367387000 1547.0
55.389119880 1532.0
55.410852760 1556.0
55.432585640 1485.0
55.454318520 1565.0
55.476051400 1570.0
55.497784280 1525.0
55.519517160 1560.0
55.541250040 1515.0
55.562982920 1477.0
55.584715800 1547.0
55.606448680 1574.0
55.628181560 1555.0
55.649914440 1477.0
55.671647320 1488.0
55.693380200 1595.0
55.715113080 1524.0
55.736845960 1521.0
55.758578840 1551.0
55.780311720 1500.0
55.802044600 1548.0
55.823777480 1576.0
55.845510360 1612.0
55.867243240 1504.0
55.888976120 1452.0
55.910709000 1423.0
55.932441880 1550.0
55.954174760 1516.0
55.975907640 1550.0
55.997640520 1554.0
56.019373400 1590.0
56.041106280 1607.0
56.062839160 1576.0
56.084572040 1526.0
56.106304920 1550.0
56.128037800 1484.0
56.149770680 1520.0
56.171503560 1537.0
56.193236440 1537.0
56.214969320 1523.0
56.236702200 1572.0
56.258435080 1625.0
56.280167960 1601.0
56.301900840 1451.0
56.323633720 1510.0
56.345366600 1541.0
56.367099480 1585.0
56.388832360 1487.0
56.410565240 1569.0
56.432298120 1506.0
56.454031000 1572.0
56.475763880 1487.0
56.497496760 1445.0
56.519229640 1522.0
56.540962520 1519.0
56.562695400 1526.0
56.584428280 1526.0
56.606161160 1587.0
56.627894040 1506.0
56.649626920 1523.0
56.671359800 1507.0
56.693092680 1543.0
56.714825560 1576.0
56.736558440 1514.0
56.758291320 1528.0
56.780024200 1536.0
56.801757080 1551.0
56.823489960 1588.0
56.845222840 1591.0
56.866955720 1535.0
56.888688600 1484.0
56.910421480 1584.0
56.932154360 1612.0
56.953887240 1561.0
56.975620120 1586.0
56.997353000 1507.0
57.019085880 1564.0
57.040818760 1550.0
57.062551640 1628.0
57.084284520 1527.0
57.106017400 1583.0
57.127750280 1548.0
57.149483160 1520.0
57.171216040 1627.0
57.192948920 1571.0
57.214681800 1564.0
57.236414680 1598.0
57.258147560 1803.0
57.279880440 1707.0
57.301613320 1695.0
57.323346200 1724.0
57.345079080 1725.0
57.366811960 1742.0
57.388544840 1827.0
57.410277720 1852.0
57.432010600 1913.0
57.453743480 1941.0
57.475476360 2060.0
57.497209240 2130.0
57.518942120 2289.0
57.540675000 2361.0
57.562407880 2550.0
57.584140760 2822.0
57.605873640 3104.0
57.627606520 3624.0
57.649339400 4136.0
57.671072280 4588.0
57.692805160 5186.0
57.714538040 5456.0
57.736270920 5563.0
57.758003800 5026.0
57.779736680 4561.0
57.801469560 4170.0
57.823202440 4092.0
57.844935320 4087.0
57.866668200 4006.0
57.888401080 3904.0
57.910133960 3471.0
57.931866840 3159.0
57.953599720 2773.0
57.975332600 2492.0
57.997065480 2272.0
58.018798360 2226.0
58.040531240 2185.0
58.062264120 1986.0
58.083997000 1872.0
58.105729880 1785.0
58.127462760 1714.0
58.149195640 1782.0
58.170928520 1795.0
58.192661400 1717.0
58.214394280 1644.0
58.236127160 1675.0
58.257860040 1667.0
58.279592920 1658.0
58.301325800 1679.0
58.323058680 1649.0
58.344791560 1602.0
58.366524440 1635.0
58.388257320 1676.0
58.409990200 1598.0
58.431723080 1542.0
58.453455960 1572.0
58.475188840 1577.0
58.496921720 1570.0
58.518654600 1552.0
58.540387480 1518.0
58.562120360 1608.0
58.583853240 1568.0
58.605586120 1549.0
58.627319000 1668.0
58.649051880 1504.0
58.670784760 1541.0
58.692517640 1599.0
58.714250520 1546.0
58.735983400 1570.0
58.757716280 1533.0
58.779449160 1444.0
58.801182040 1510.0
58.822914920 1513.0
58.844647800 1457.0
58.866380680 1630.0
58.888113560 1540.0
58.909846440 1549.0
58.931579320 1542.0
58.953312200 1518.0
58.975045080 1554.0
58.996777960 1540.0
59.018510840 1522.0
59.040243720 1522.0
59.061976600 1548.0
59.083709480 1584.0
59.105442360 1527.0
59.127175240 1482.0
59.148908120 1473.0
59.170641000 1492.0
59.192373880 1631.0
59.214106760 1524.0
59.235839640 1494.0
59.257572520 1562.0
59.279305400 1459.0
59.301038280 1472.0
59.322771160 1545.0
59.344504040 1496.0
59.366236920 1517.0
59.387969800 1447.0
59.409702680 1519.0
59.431435560 1513.0
59.453168440 1543.0
59.474901320 1506.0
59.496634200 1491.0
59.518367080 1502.0
59.540099960 1492.0
59.561832840 1491.0
59.583565720 1460.0
59.605298600 1560.0
59.627031480 1515.0
59.648764360 1477.0
59.670497240 1496.0
59.692230120 1476.0
59.713963000 1589.0
59.735695880 1516.0
59.757428760 1489.0
59.779161640 1519.0
59.800894520 1479.0
59.822627400 1497.0
59.844360280 1465.0
59.866093160 1497.0
59.887826040 1466.0
59.909558920 1489.0
59.931291800 1521.0
59.953024680 1503.0
59.974757560 1517.0
59.996490440 1572.0
60.018223320 1500.0
60.039956200 1487.0
60.061689080 1500.0
60.083421960 1547.0
60.105154840 1508.0
60.126887720 1497.0
60.148620600 1519.0
60.170353480 1531.0
60.192086360 1474.0
60.213819240 1504.0
60.235552120 1537.0
60.257285000 1458.0
60.279017880 1486.0
60.300750760 1559.0
60.322483640 1609.0
60.344216520 1495.0
60.365949400 1540.0
60.387682280 1448.0
60.409415160 1499.0
60.431148040 1541.0
60.452880920 1555.0
60.474613800 1534.0
60.496346680 1429.0
60.518079560 1469.0
60.539812440 1544.0
60.561545320 1473.0
60.583278200 1494.0
60.605011080 1445.0
60.626743960 1547.0
60.648476840 1462.0
60.670209720 1485.0
60.691942600 1513.0
60.713675480 1558.0
60.735408360 1509.0
60.757141240 1444.0
60.778874120 1484.0
60.800607000 1600.0
60.822339880 1518.0
60.844072760 1517.0
60.865805640 1515.0
60.887538520 1477.0
60.909271400 1567.0
60.931004280 1466.0
60.952737160 1486.0
60.974470040 1526.0
60.996202920 1481.0
61.017935800 1510.0
61.039668680 1545.0
61.061401560 1507.0
61.083134440 1502.0
61.104867320 1509.0
61.126600200 1467.0
61.148333080 1497.0
61.170065960 1504.0
61.191798840 1582.0
61.213531720 1457.0
61.235264600 1541.0
61.256997480 1499.0
61.278730360 1495.0
61.300463240 1473.0
61.322196120 1530.0
61.343929000 1431.0
61.365661880 1534.0
61.387394760 1512.0
61.409127640 1442.0
61.430860520 1498.0
61.452593400 1512.0
61.474326280 1578.0
61.496059160 1538.0
61.517792040 1495.0
61.539524920 1537.0
61.561257800 1502.0
61.582990680 1588.0
61.604723560 1486.0
61.626456440 1471.0
61.648189320 1600.0
61.669922200 1513.0
61.691655080 1469.0
61.713387960 1526.0
61.735120840 1581.0
61.756853720 1443.0
61.778586600 1506.0
61.800319480 1513.0
61.822052360 1550.0
61.843785240 1479.0
61.865518120 1503.0
61.887251000 1546.0
61.908983880 1500.0
61.930716760 1427.0
61.952449640 1566.0
61.974182520 1470.0
61.995915400 1435.0
62.017648280 1525.0
62.039381160 1579.0
62.061114040 1549.0
62.082846920 1504.0
62.104579800 1443.0
62.126312680 1567.0
62.148045560 1514.0
62.169778440 1494.0
62.191511320 1486.0
62.213244200 1493.0
62.234977080 1475.0
62.256709960 1458.0
62.278442840 1552.0
62.300175720 1515.0
62.321908600 1496.0
62.343641480 1485.0
62.365374360 1503.0
62.387107240 1540.0
62.408840120 1609.0
62.430573000 1514.0
62.452305880 1486.0
62.474038760 1497.0
62.495771640 1531.0
62.517504520 1518.0
62.539237400 1654.0
62.560970280 1581.0
62.582703160 1502.0
62.604436040 1560.0
62.626168920 1598.0
62.647901800 1567.0
62.669634680 1573.0
62.691367560 1562.0
62.713100440 1617.0
62.734833320 1566.0
62.756566200 1539.0
62.778299080 1634.0
62.800031960 1637.0
62.821764840 1575.0
62.843497720 1660.0
62.865230600 1622.0
62.886963480 1611.0
62.908696360 1670.0
62.930429240 1690.0
62.952162120 1785.0
62.973895000 1759.0
62.995627880 1833.0
63.017360760 1804.0
63.039093640 1715.0
63.060826520 1893.0
63.082559400 1922.0
63.104292280 1940.0
63.126025160 1938.0
63.147758040 2052.0
63.169490920 2075.0
63.191223800 2125.0
63.212956680 2144.0
63.234689560 2314.0
63.256422440 2337.0
63.278155320 2592.0
63.299888200 2714.0
63.321621080 2968.0
63.343353960 3214.0
63.365086840 3500.0
63.386819720 3859.0
63.408552600 4229.0
63.430285480 4625.0
63.452018360 4880.0
63.473751240 5070.0
63.495484120 4943.0
63.517217000 4549.0
63.538949880 4247.0
63.560682760 4054.0
63.582415640 3812.0
63.604148520 3909.0
63.625881400 3833.0
63.647614280 3728.0
63.669347160 3504.0
63.691080040 3196.0
63.712812920 2935.0
63.734545800 2711.0
63.756278680 2616.0
63.778011560 2452.0
63.799744440 2369.0
63.821477320 2120.0
63.843210200 2135.0
63.864943080 2004.0
63.886675960 1926.0
63.908408840 1950.0
63.930141720 1977.0
63.951874600 1842.0
63.973607480 1862.0
63.995340360 1800.0
64.017073240 1771.0
64.038806120 1789.0
64.060539000 1732.0
64.082271880 1767.0
64.104004760 1751.0
64.125737640 1746.0
64.147470520 1768.0
64.169203400 1724.0
64.190936280 1650.0
64.212669160 1733.0
64.234402040 1662.0
64.256134920 1716.0
64.277867800 1756.0
64.299600680 1648.0
64.321333560 1728.0
64.343066440 1600.0
64.364799320 1685.0
64.386532200 1716.0
64.408265080 1702.0
64.429997960 1646.0
64.451730840 1798.0
64.473463720 1701.0
64.495196600 1695.0
64.516929480 1732.0
64.538662360 1667.0
64.560395240 1743.0
64.582128120 1737.0
64.603861000 1772.0
64.625593880 1732.0
64.647326760 1719.0
64.669059640 1824.0
64.690792520 1757.0
64.712525400 1846.0
64.734258280 1762.0
64.755991160 1848.0
64.777724040 1954.0
64.799456920 1935.0
64.821189800 1953.0
64.842922680 1982.0
64.864655560 1979.0
64.886388440 2080.0
64.908121320 2307.0
64.929854200 2262.0
64.951587080 2309.0
64.973319960 2440.0
64.995052840 2634.0
65.016785720 2715.0
65.038518600 2852.0
65.060251480 2991.0
65.081984360 3178.0
65.103717240 3506.0
65.125450120 3893.0
65.147183000 4326.0
65.168915880 4616.0
65.190648760 5305.0
65.212381640 6012.0
65.234114520 6912.0
65.255847400 7848.0
65.277580280 8943.0
65.299313160 9674.0
65.321046040 10045.0
65.342778920 9533.0
65.364511800 8756.0
65.386244680 8007.0
65.407977560 7470.0
65.429710440 7149.0
65.451443320 7123.0
65.473176200 6965.0
65.494909080 6968.0
65.516641960 6400.0
65.538374840 5887.0
65.560107720 5045.0
65.581840600 4473.0
65.603573480 3905.0
65.625306360 3575.0
65.647039240 3300.0
65.668772120 3135.0
65.690505000 2810.0
65.712237880 2609.0
65.733970760 2528.0
65.755703640 2501.0
65.777436520 2280.0
65.799169400 2232.0
65.820902280 2149.0
65.842635160 2058.0
65.864368040 1980.0
65.886100920 1946.0
65.907833800 1927.0
65.929566680 1891.0
65.951299560 1885.0
65.973032440 1801.0
65.994765320 1778.0
66.016498200 1763.0
66.038231080 1751.0
66.059963960 1745.0
66.081696840 1722.0
66.103429720 1625.0
66.125162600 1637.0
66.146895480 1636.0
66.168628360 1617.0
66.190361240 1676.0
66.212094120 1689.0
66.233827000 1602.0
66.255559880 1610.0
66.277292760 1674.0
66.299025640 1623.0
66.320758520 1680.0
66.342491400 1588.0
66.364224280 1609.0
66.385957160 1622.0
66.407690040 1564.0
66.429422920 1583.0
66.451155800 1624.0
66.472888680 1554.0
66.494621560 1565.0
66.516354440 1516.0
66.538087320 1623.0
66.559820200 1575.0
66.581553080 1485.0
66.603285960 1543.0
66.625018840 1501.0
66.646751720 1534.0
66.668484600 1512.0
66.690217480 1561.0
66.711950360 1508.0
66.733683240 1528.0
66.755416120 1555.0
66.777149000 1523.0
66.798881880 1529.0
66.820614760 1605.0
66.842347640 1518.0
66.864080520 1536.0
66.885813400 1523.0
66.907546280 1508.0
66.929279160 1543.0
66.951012040 1456.0
66.972744920 1457.0
66.994477800 1522.0
67.016210680 1606.0
67.037943560 1526.0
67.059676440 1488.0
67.081409320 1532.0
67.103142200 1539.0
67.124875080 1447.0
67.146607960 1512.0
67.168340840 1572.0
67.190073720 1454.0
67.211806600 1561.0
67.233539480 1437.0
67.255272360 1518.0
67.277005240 1497.0
67.298738120 1518.0
67.320471000 1546.0
67.342203880 1476.0
67.363936760 1473.0
67.385669640 1481.0
67.407402520 1504.0
67.429135400 1520.0
67.450868280 1454.0
67.472601160 1514.0
67.494334040 1500.0
67.516066920 1482.0
67.537799800 1511.0
67.559532680 1482.0
67.581265560 1471.0
67.602998440 1456.0
67.624731320 1419.0
67.646464200 1455.0
67.668197080 1445.0
67.689929960 1429.0
67.711662840 1481.0
67.733395720 1512.0
67.755128600 1518.0
67.776861480 1510.0
67.798594360 1486.0
67.820327240 1472.0
67.842060120 1549.0
67.863793000 1544.0
67.885525880 1443.0
67.907258760 1423.0
67.928991640 1499.0
67.950724520 1539.0
67.972457400 1603.0
67.994190280 1503.0
68.015923160 1462.0
68.037656040 1426.0
68.059388920 1491.0
68.081121800 1447.0
68.102854680 1534.0
68.124587560 1534.0
68.146320440 1446.0
68.168053320 1505.0
68.189786200 1469.0
68.211519080 1501.0
68.233251960 1510.0
68.254984840 1469.0
68.276717720 1475.0
68.298450600 1440.0
68.320183480 1529.0
68.341916360 1419.0
68.363649240 1460.0
68.385382120 1426.0
68.407115000 1426.0
68.428847880 1482.0
68.450580760 1470.0
68.472313640 1435.0
68.494046520 1388.0
68.515779400 1381.0
68.537512280 1388.0
68.559245160 1414.0
68.580978040 1450.0
68.602710920 1458.0
68.624443800 1463.0
68.646176680 1562.0
68.667909560 1408.0
68.689642440 1471.0
68.711375320 1469.0
68.733108200 1531.0
68.754841080 1502.0
68.776573960 1434.0
68.798306840 1449.0
68.820039720 1472.0
68.841772600 1418.0
68.863505480 1451.0
68.885238360 1421.0
68.906971240 1479.0
68.928704120 1474.0
68.950437000 1443.0
68.972169880 1478.0
68.993902760 1409.0
69.015635640 1458.0
69.037368520 1466.0
69.059101400 1457.0
69.080834280 1476.0
69.102567160 1464.0
69.124300040 1465.0
69.146032920 1477.0
69.167765800 1461.0
69.189498680 1483.0
69.211231560 1434.0
69.232964440 1498.0
69.254697320 1458.0
69.276430200 1410.0
69.298163080 1540.0
69.319895960 1488.0
69.341628840 1469.0
69.363361720 1405.0
69.385094600 1453.0
69.406827480 1491.0
69.428560360 1475.0
69.450293240 1416.0
69.472026120 1433.0
69.493759000 1493.0
69.515491880 1500.0
69.537224760 1466.0
69.558957640 1404.0
69.580690520 1426.0
69.602423400 1486.0
69.624156280 1439.0
69.645889160 1454.0
69.667622040 1469.0
69.689354920 1420.0
69.711087800 1423.0
69.732820680 1461.0
69.754553560 1430.0
69.776286440 1404.0
69.798019320 1466.0
69.819752200 1530.0
69.841485080 1504.0
69.863217960 1457.0
69.884950840 1483.0
69.906683720 1436.0
69.928416600 1488.0
69.950149480 1472.0
69.971882360 1468.0
69.993615240 1462.0
70.015348120 1508.0
70.037081000 1484.0
70.058813880 1465.0
70.080546760 1436.0
70.102279640 1438.0
70.124012520 1452.0
70.145745400 1478.0
70.167478280 1406.0
70.189211160 1441.0
70.210944040 1469.0
70.232676920 1437.0
70.254409800 1417.0
70.276142680 1445.0
70.297875560 1351.0
70.319608440 1500.0
70.341341320 1472.0
70.363074200 1486.0
70.384807080 1465.0
70.406539960 1452.0
70.428272840 1342.0
70.450005720 1396.0
70.471738600 1455.0
70.493471480 1517.0
70.515204360 1419.0
70.536937240 1464.0
70.558670120 1532.0
70.580403000 1460.0
70.602135880 1402.0
70.623868760 1449.0
70.645601640 1467.0
70.667334520 1471.0
70.689067400 1472.0
70.710800280 1436.0
70.732533160 1405.0
70.754266040 1386.0
70.775998920 1459.0
70.797731800 1447.0
70.819464680 1444.0
70.841197560 1390.0
70.862930440 1444.0
70.884663320 1450.0
70.906396200 1500.0
70.928129080 1395.0
70.949861960 1494.0
70.971594840 1489.0
70.993327720 1502.0
71.015060600 1525.0
71.036793480 1495.0
71.058526360 1409.0
71.080259240 1402.0
71.101992120 1446.0
71.123725000 1441.0
71.145457880 1446.0
71.167190760 1471.0
71.188923640 1527.0
71.210656520 1467.0
71.232389400 1489.0
71.254122280 1537.0
71.275855160 1453.0
71.297588040 1491.0
71.319320920 1459.0
71.341053800 1503.0
71.362786680 1521.0
71.384519560 1428.0
71.406252440 1434.0
71.427985320 1470.0
71.449718200 1496.0
71.471451080 1532.0
71.493183960 1478.0
71.514916840 1514.0
71.536649720 1516.0
71.558382600 1560.0
71.580115480 1446.0
71.601848360 1434.0
71.623581240 1494.0
71.645314120 1503.0
71.667047000 1578.0
71.688779880 1538.0
71.710512760 1552.0
71.732245640 1515.0
71.753978520 1605.0
71.775711400 1578.0
71.797444280 1602.0
71.819177160 1643.0
71.840910040 1638.0
71.862642920 1611.0
71.884375800 1663.0
71.906108680 1641.0
71.927841560 1748.0
71.949574440 1697.0
71.971307320 1754.0
71.993040200 1832.0
72.014773080 1829.0
72.036505960 1897.0
72.058238840 1904.0
72.079971720 2060.0
72.101704600 2136.0
72.123437480 2110.0
72.145170360 2211.0
72.166903240 2281.0
72.188636120 2361.0
72.210369000 2478.0
72.232101880 2746.0
72.253834760 2871.0
72.275567640 3049.0
72.297300520 3260.0
72.319033400 3604.0
72.340766280 3821.0
72.362499160 4380.0
72.384232040 4786.0
72.405964920 5215.0
72.427697800 5897.0
72.449430680 6229.0
72.471163560 6429.0
72.492896440 6351.0
72.514629320 5804.0
72.536362200 5373.0
72.558095080 5223.0
72.579827960 4810.0
72.601560840 4928.0
72.623293720 4661.0
72.645026600 4841.0
72.666759480 4556.0
72.688492360 4569.0
72.710225240 4230.0
72.731958120 3906.0
72.753691000 3550.0
72.775423880 3315.0
72.797156760 2891.0
72.818889640 2761.0
72.840622520 2584.0
72.862355400 2429.0
72.884088280 2314.0
72.905821160 2223.0
72.927554040 2104.0
72.949286920 2069.0
72.971019800 1994.0
72.992752680 1899.0
73.014485560 1863.0
73.036218440 1820.0
73.057951320 1755.0
73.079684200 1764.0
73.101417080 1729.0
73.123149960 1747.0
73.144882840 1768.0
73.166615720 1729.0
73.188348600 1508.0
73.210081480 1657.0
73.231814360 1552.0
73.253547240 1561.0
73.275280120 1557.0
73.297013000 1481.0
73.318745880 1640.0
73.340478760 1544.0
73.362211640 1516.0
73.383944520 1518.0
73.405677400 1560.0
73.427410280 1577.0
73.449143160 1493.0
73.470876040 1460.0
73.492608920 1498.0
73.514341800 1474.0
73.536074680 1506.0
73.557807560 1440.0
73.579540440 1511.0
73.601273320 1449.0
73.623006200 1463.0
73.644739080 1514.0
73.666471960 1505.0
73.688204840 1450.0
73.709937720 1466.0
73.731670600 1411.0
73.753403480 1396.0
73.775136360 1377.0
73.796869240 1435.0
73.818602120 1417.0
73.840335000 1404.0
73.862067880 1444.0
73.883800760 1397.0
73.905533640 1342.0
73.927266520 1430.0
73.948999400 1429.0
73.970732280 1404.0
73.992465160 1424.0
74.014198040 1440.0
74.035930920 1397.0
74.057663800 1351.0
74.079396680 1404.0
74.101129560 1396.0
74.122862440 1450.0
74.144595320 1447.0
74.166328200 1397.0
74.188061080 1375.0
74.209793960 1346.0
74.231526840 1444.0
74.253259720 1441.0
74.274992600 1387.0
74.296725480 1416.0
74.318458360 1414.0
74.340191240 1308.0
74.361924120 1330.0
74.383657000 1430.0
74.405389880 1471.0
74.427122760 1414.0
74.448855640 1376.0
74.470588520 1424.0
74.492321400 1387.0
74.514054280 1422.0
74.535787160 1439.0
74.557520040 1378.0
74.579252920 1411.0
74.600985800 1381.0
74.622718680 1401.0
74.644451560 1389.0
74.666184440 1305.0
74.687917320 1291.0
74.709650200 1423.0
74.731383080 1359.0
74.753115960 1386.0
74.774848840 1388.0
74.796581720 1392.0
74.818314600 1362.0
74.840047480 1417.0
74.861780360 1404.0
74.883513240 1429.0
74.905246120 1370.0
74.926979000 1407.0
74.948711880 1371.0
74.970444760 1407.0
74.992177640 1362.0
75.013910520 1392.0
75.035643400 1388.0
75.057376280 1463.0
75.079109160 1442.0
75.100842040 1316.0
75.122574920 1352.0
75.144307800 1365.0
75.166040680 1416.0
75.187773560 1371.0
75.209506440 1444.0
75.231239320 1489.0
75.252972200 1403.0
75.274705080 1414.0
75.296437960 1367.0
75.318170840 1394.0
75.339903720 1401.0
75.361636600 1375.0
75.383369480 1362.0
75.405102360 1391.0
75.426835240 1382.0
75.448568120 1405.0
75.470301000 1405.0
75.492033880 1398.0
75.513766760 1359.0
75.535499640 1327.0
75.557232520 1407.0
75.578965400 1383.0
75.600698280 1360.0
75.622431160 1394.0
75.644164040 1378.0
75.665896920 1337.0
75.687629800 1322.0
75.709362680 1402.0
75.731095560 1346.0
75.752828440 1383.0
75.774561320 1368.0
75.796294200 1389.0
75.818027080 1445.0
75.839759960 1389.0
75.861492840 1329.0
75.883225720 1418.0
75.904958600 1312.0
75.926691480 1327.0
75.948424360 1335.0
75.970157240 1322.0
75.991890120 1338.0
76.013623000 1413.0
76.035355880 1424.0
76.057088760 1411.0
76.078821640 1390.0
76.100554520 1404.0
76.122287400 1383.0
76.144020280 1316.0
76.165753160 1351.0
76.187486040 1396.0
76.209218920 1401.0
76.230951800 1320.0
76.252684680 1446.0
76.274417560 1370.0
76.296150440 1382.0
76.317883320 1382.0
76.339616200 1427.0
76.361349080 1398.0
76.383081960 1326.0
76.404814840 1395.0
76.426547720 1358.0
76.448280600 1411.0
76.470013480 1399.0
76.491746360 1384.0
76.513479240 1361.0
76.535212120 1379.0
76.556945000 1354.0
76.578677880 1406.0
76.600410760 1405.0
76.622143640 1413.0
76.643876520 1388.0
76.665609400 1332.0
76.687342280 1458.0
76.709075160 1339.0
76.730808040 1374.0
76.752540920 1397.0
76.774273800 1365.0
76.796006680 1371.0
76.817739560 1358.0
76.839472440 1432.0
76.861205320 1470.0
76.882938200 1412.0
76.904671080 1354.0
76.926403960 1431.0
76.948136840 1446.0
76.969869720 1469.0
76.991602600 1418.0
77.013335480 1419.0
77.035068360 1456.0
77.056801240 1497.0
77.078534120 1408.0
77.100267000 1483.0
77.121999880 1483.0
77.143732760 1550.0
77.165465640 1436.0
77.187198520 1495.0
77.208931400 1608.0
77.230664280 1578.0
77.252397160 1570.0
77.274130040 1631.0
77.295862920 1653.0
77.317595800 1564.0
77.339328680 1631.0
77.361061560 1703.0
77.382794440 1738.0
77.404527320 1806.0
77.426260200 1836.0
77.447993080 1979.0
77.469725960 1990.0
77.491458840 2162.0
77.513191720 2388.0
77.534924600 2454.0
77.556657480 2534.0
77.578390360 2764.0
77.600123240 2973.0
77.621856120 3261.0
77.643589000 3412.0
77.665321880 3420.0
77.687054760 3315.0
77.708787640 3015.0
77.730520520 2853.0
77.752253400 2777.0
77.773986280 2642.0
77.795719160 2495.0
77.817452040 2573.0
77.839184920 2600.0
77.860917800 2788.0
77.882650680 2548.0
77.904383560 2621.0
77.926116440 2374.0
77.947849320 2208.0
77.969582200 2151.0
77.991315080 2043.0
78.013047960 1866.0
78.034780840 1783.0
78.056513720 1810.0
78.078246600 1738.0
78.099979480 1597.0
78.121712360 1671.0
78.143445240 1597.0
78.165178120 1553.0
78.186911000 1470.0
78.208643880 1579.0
78.230376760 1544.0
78.252109640 1471.0
78.273842520 1585.0
78.295575400 1382.0
78.317308280 1470.0
78.339041160 1421.0
78.360774040 1403.0
78.382506920 1397.0
78.404239800 1489.0
78.425972680 1374.0
78.447705560 1494.0
78.469438440 1525.0
78.491171320 1373.0
78.512904200 1320.0
78.534637080 1429.0
78.556369960 1385.0
78.578102840 1388.0
78.599835720 1387.0
78.621568600 1403.0
78.643301480 1322.0
78.665034360 1378.0
78.686767240 1339.0
78.708500120 1314.0
78.730233000 1343.0
78.751965880 1312.0
78.773698760 1360.0
78.795431640 1307.0
78.817164520 1325.0
78.838897400 1280.0
78.860630280 1354.0
78.882363160 1364.0
78.904096040 1327.0
78.925828920 1274.0
78.947561800 1374.0
78.969294680 1347.0
78.991027560 1351.0
79.012760440 1344.0
79.034493320 1383.0
79.056226200 1388.0
79.077959080 1335.0
79.099691960 1296.0
79.121424840 1273.0
79.143157720 1301.0
79.164890600 1300.0
79.186623480 1291.0
79.208356360 1322.0
79.230089240 1253.0
79.251822120 1324.0
79.273555000 1368.0
79.295287880 1379.0
79.317020760 1322.0
79.338753640 1301.0
79.360486520 1313.0
79.382219400 1370.0
79.403952280 1294.0
79.425685160 1322.0
79.447418040 1356.0
79.469150920 1299.0
79.490883800 1350.0
79.512616680 1276.0
79.534349560 1318.0
79.556082440 1310.0
79.577815320 1348.0
79.599548200 1380.0
79.621281080 1282.0
79.643013960 1321.0
79.664746840 1340.0
79.686479720 1301.0
79.708212600 1263.0
79.729945480 1327.0
79.751678360 1327.0
79.773411240 1315.0
79.795144120 1304.0
79.816877000 1322.0
79.838609880 1318.0
79.860342760 1268.0
79.882075640 1341.0
79.903808520 1298.0
79.925541400 1355.0
79.947274280 1313.0
79.969007160 1281.0
79.990740040 1289.0
80.012472920 1298.0
80.034205800 1326.0
80.055938680 1291.0
80.077671560 1327.0
80.099404440 1329.0
80.121137320 1289.0
80.142870200 1393.0
80.164603080 1253.0
80.186335960 1306.0
80.208068840 1303.0
80.229801720 1334.0
80.251534600 1313.0
80.273267480 1358.0
80.295000360 1279.0
80.316733240 1354.0
80.338466120 1344.0
80.360199000 1303.0
80.381931880 1324.0
80.403664760 1295.0
80.425397640 1281.0
80.447130520 1321.0
80.468863400 1275.0
80.490596280 1281.0
80.512329160 1238.0
80.534062040 1279.0
80.555794920 1259.0
80.577527800 1357.0
80.599260680 1329.0
80.620993560 1357.0
80.642726440 1341.0
80.664459320 1302.0
80.686192200 1309.0
80.707925080 1304.0
80.729657960 1309.0
80.751390840 1377.0
80.773123720 1287.0
80.794856600 1252.0
80.816589480 1233.0
80.838322360 1267.0
80.860055240 1257.0
80.881788120 1326.0
80.903521000 1239.0
80.925253880 1360.0
80.946986760 1338.0
80.968719640 1335.0
80.990452520 1320.0
81.012185400 1289.0
81.033918280 1313.0
81.055651160 1292.0
81.077384040 1288.0
81.099116920 1334.0
81.120849800 1280.0
81.142582680 1269.0
81.164315560 1286.0
81.186048440 1328.0
81.207781320 1265.0
81.229514200 1302.0
81.251247080 1318.0
81.272979960 1354.0
81.294712840 1292.0
81.316445720 1347.0
81.338178600 1251.0
81.359911480 1328.0
81.381644360 1325.0
81.403377240 1208.0
81.425110120 1280.0
81.446843000 1285.0
81.468575880 1292.0
81.490308760 1255.0
81.512041640 1281.0
81.533774520 1331.0
81.555507400 1275.0
81.577240280 1303.0
81.598973160 1327.0
81.620706040 1334.0
81.642438920 1288.0
81.664171800 1236.0
81.685904680 1361.0
81.707637560 1330.0
81.729370440 1346.0
81.751103320 1299.0
81.772836200 1253.0
81.794569080 1310.0
81.816301960 1200.0
81.838034840 1257.0
81.859767720 1301.0
81.881500600 1271.0
81.903233480 1398.0
81.924966360 1285.0
81.946699240 1223.0
81.968432120 1220.0
81.990165000 1332.0
82.011897880 1228.0
82.033630760 1255.0
82.055363640 1289.0
82.077096520 1288.0
82.098829400 1260.0
82.120562280 1209.0
82.142295160 1313.0
82.164028040 1306.0
82.185760920 1290.0
82.207493800 1301.0
82.229226680 1277.0
82.250959560 1322.0
82.272692440 1316.0
82.294425320 1319.0
82.316158200 1348.0
82.337891080 1297.0
82.359623960 1286.0
82.381356840 1256.0
82.403089720 1302.0
82.424822600 1298.0
82.446555480 1264.0
82.468288360 1265.0
82.490021240 1274.0
82.511754120 1258.0
82.533487000 1209.0
82.555219880 1318.0
82.576952760 1266.0
82.598685640 1270.0
82.620418520 1312.0
82.642151400 1274.0
82.663884280 1245.0
82.685617160 1262.0
82.707350040 1282.0
82.729082920 1306.0
82.750815800 1242.0
82.772548680 1321.0
82.794281560 1237.0
82.816014440 1262.0
82.837747320 1275.0
82.859480200 1291.0
82.881213080 1276.0
82.902945960 1336.0
82.924678840 1322.0
82.946411720 1244.0
82.968144600 1218.0
82.989877480 1250.0
83.011610360 1285.0
83.033343240 1266.0
83.055076120 1268.0
83.076809000 1283.0
83.098541880 1306.0
83.120274760 1306.0
83.142007640 1296.0
83.163740520 1293.0
83.185473400 1368.0
83.207206280 1263.0
83.228939160 1222.0
83.250672040 1263.0
83.272404920 1271.0
83.294137800 1209.0
83.315870680 1382.0
83.337603560 1235.0
83.359336440 1230.0
83.381069320 1258.0
83.402802200 1284.0
83.424535080 1241.0
83.446267960 1276.0
83.468000840 1277.0
83.489733720 1285.0
83.511466600 1269.0
83.533199480 1276.0
83.554932360 1235.0
83.576665240 1277.0
83.598398120 1315.0
83.620131000 1299.0
83.641863880 1239.0
83.663596760 1248.0
83.685329640 1238.0
83.707062520 1227.0
83.728795400 1239.0
83.750528280 1274.0
83.772261160 1249.0
83.793994040 1243.0
83.815726920 1310.0
83.837459800 1232.0
83.859192680 1304.0
83.880925560 1220.0
83.902658440 1262.0
83.924391320 1259.0
83.946124200 1332.0
83.967857080 1182.0
83.989589960 1281.0
84.011322840 1288.0
84.033055720 1234.0
84.054788600 1268.0
84.076521480 1232.0
84.098254360 1238.0
84.119987240 1308.0
84.141720120 1218.0
84.163453000 1315.0
84.185185880 1258.0
84.206918760 1231.0
84.228651640 1319.0
84.250384520 1248.0
84.272117400 1251.0
84.293850280 1331.0
84.315583160 1225.0
84.337316040 1253.0
84.359048920 1273.0
84.380781800 1236.0
84.402514680 1282.0
84.424247560 1198.0
84.445980440 1273.0
84.467713320 1334.0
84.489446200 1275.0
84.511179080 1290.0
84.532911960 1275.0
84.554644840 1226.0
84.576377720 1274.0
84.598110600 1284.0
84.619843480 1275.0
84.641576360 1329.0
84.663309240 1303.0
84.685042120 1219.0
84.706775000 1231.0
84.728507880 1272.0
84.750240760 1287.0
84.771973640 1200.0
84.793706520 1247.0
84.815439400 1293.0
84.837172280 1342.0
84.858905160 1270.0
84.880638040 1301.0
84.902370920 1279.0
84.924103800 1276.0
84.945836680 1284.0
84.967569560 1272.0
84.989302440 1286.0
85.011035320 1298.0
85.032768200 1309.0
85.054501080 1352.0
85.076233960 1324.0
85.097966840 1328.0
85.119699720 1270.0
85.141432600 1261.0
85.163165480 1248.0
85.184898360 1267.0
85.206631240 1333.0
85.228364120 1179.0
85.250097000 1341.0
85.271829880 1320.0
85.293562760 1196.0
85.315295640 1333.0
85.337028520 1290.0
85.358761400 1372.0
85.380494280 1342.0
85.402227160 1362.0
85.423960040 1336.0
85.445692920 1302.0
85.467425800 1306.0
85.489158680 1275.0
85.510891560 1310.0
85.532624440 1374.0
85.554357320 1356.0
85.576090200 1334.0
85.597823080 1367.0
85.619555960 1357.0
85.641288840 1402.0
85.663021720 1408.0
85.684754600 1455.0
85.706487480 1446.0
85.728220360 1459.0
85.749953240 1568.0
85.771686120 1453.0
85.793419000 1505.0
85.815151880 1555.0
85.836884760 1576.0
85.858617640 1627.0
85.880350520 1705.0
85.902083400 1663.0
85.923816280 1798.0
85.945549160 1901.0
85.967282040 1925.0
85.989014920 1977.0
86.010747800 2196.0
86.032480680 2188.0
86.054213560 2345.0
86.075946440 2404.0
86.097679320 2412.0
86.119412200 2388.0
86.141145080 2251.0
86.162877960 2203.0
86.184610840 2122.0
86.206343720 1964.0
86.228076600 1995.0
86.249809480 2030.0
86.271542360 1979.0
86.293275240 1995.0
86.315008120 1965.0
86.336741000 1992.0
86.358473880 2011.0
86.380206760 1946.0
86.401939640 1826.0
86.423672520 1743.0
86.445405400 1734.0
86.467138280 1686.0
86.488871160 1634.0
86.510604040 1580.0
86.532336920 1484.0
86.554069800 1470.0
86.575802680 1488.0
86.597535560 1437.0
86.619268440 1374.0
86.641001320 1381.0
86.662734200 1422.0
86.684467080 1440.0
86.706199960 1319.0
86.727932840 1417.0
86.749665720 1333.0
86.771398600 1361.0
86.793131480 1331.0
86.814864360 1289.0
86.836597240 1340.0
86.858330120 1381.0
86.880063000 1357.0
86.901795880 1296.0
86.923528760 1270.0
86.945261640 1321.0
86.966994520 1231.0
86.988727400 1203.0
87.010460280 1288.0
87.032193160 1249.0
87.053926040 1255.0
87.075658920 1276.0
87.097391800 1285.0
87.119124680 1255.0
87.140857560 1262.0
87.162590440 1263.0
87.184323320 1268.0
87.206056200 1319.0
87.227789080 1228.0
87.249521960 1291.0
87.271254840 1305.0
87.292987720 1241.0
87.314720600 1247.0
87.336453480 1244.0
87.358186360 1246.0
87.379919240 1232.0
87.401652120 1257.0
87.423385000 1333.0
87.445117880 1245.0
87.466850760 1267.0
87.488583640 1245.0
87.510316520 1203.0
87.532049400 1209.0
87.553782280 1243.0
87.575515160 1256.0
87.597248040 1251.0
87.618980920 1242.0
87.640713800 1265.0
87.662446680 1274.0
87.684179560 1311.0
87.705912440 1304.0
87.727645320 1269.0
87.749378200 1286.0
87.771111080 1282.0
87.792843960 1249.0
87.814576840 1265.0
87.836309720 1232.0
87.858042600 1279.0
87.879775480 1273.0
87.901508360 1312.0
87.923241240 1260.0
87.944974120 1208.0
87.966707000 1234.0
87.988439880 1239.0
88.010172760 1247.0
88.031905640 1233.0
88.053638520 1193.0
88.075371400 1216.0
88.097104280 1230.0
88.118837160 1234.0
88.140570040 1261.0
88.162302920 1241.0
88.184035800 1182.0
88.205768680 1276.0
88.227501560 1253.0
88.249234440 1227.0
88.270967320 1218.0
88.292700200 1203.0
88.314433080 1260.0
88.336165960 1230.0
88.357898840 1245.0
88.379631720 1258.0
88.401364600 1196.0
88.423097480 1277.0
88.444830360 1205.0
88.466563240 1268.0
88.488296120 1249.0
88.510029000 1222.0
88.531761880 1240.0
88.553494760 1230.0
88.575227640 1246.0
88.596960520 1221.0
88.618693400 1196.0
88.640426280 1314.0
88.662159160 1233.0
88.683892040 1250.0
88.705624920 1321.0
88.727357800 1182.0
88.749090680 1221.0
88.770823560 1253.0
88.792556440 1179.0
88.814289320 1216.0
88.836022200 1246.0
88.857755080 1242.0
88.879487960 1326.0
88.901220840 1270.0
88.922953720 1192.0
88.944686600 1189.0
88.966419480 1251.0
88.988152360 1231.0
89.009885240 1270.0
89.031618120 1332.0
89.053351000 1246.0
89.075083880 1279.0
89.096816760 1196.0
89.118549640 1282.0
89.140282520 1283.0
89.162015400 1355.0
89.183748280 1283.0
89.205481160 1270.0
89.227214040 1251.0
89.248946920 1222.0
89.270679800 1230.0
89.292412680 1257.0
89.314145560 1252.0
89.335878440 1237.0
89.357611320 1304.0
89.379344200 1300.0
89.401077080 1237.0
89.422809960 1192.0
89.444542840 1186.0
89.466275720 1253.0
89.488008600 1281.0
89.509741480 1286.0
89.531474360 1263.0
89.553207240 1203.0
89.574940120 1221.0
89.596673000 1244.0
89.618405880 1225.0
89.640138760 1169.0
89.661871640 1226.0
89.683604520 1260.0
89.705337400 1274.0
89.727070280 1249.0
89.748803160 1215.0
89.770536040 1258.0
89.792268920 1238.0
89.814001800 1265.0
89.835734680 1205.0
89.857467560 1266.0
89.879200440 1219.0
