Fe2CoO4
5.0000 0.000
5.0400 -0.110
5.0800 -0.109
5.1200 -0.098
5.1600 0.056
5.2000 -0.103
5.2400 0.031
5.2800 0.064
5.3200 0.040
5.3600 0.159
5.4000 -0.125
5.4400 -0.038
5.4800 -0.059
5.5200 0.056
5.5600 -0.309
5.6000 -0.063
5.6400 -0.196
5.6800 0.068
5.7200 -0.141
5.7600 -0.038
5.8000 0.034
5.8400 -0.080
5.8800 -0.101
5.9200 -0.060
5.9600 0.127
6.0000 -0.026
6.0400 0.133
6.0800 0.017
6.1200 -0.050
6.1600 -0.098
6.2000 -0.013
6.2400 0.022
6.2800 0.038
6.3200 -0.091
6.3600 0.089
6.4000 -0.011
6.4400 0.231
6.4800 0.019
6.5200 0.048
6.5600 -0.096
6.6000 -0.067
6.6400 0.186
6.6800 0.012
6.7200 -0.112
6.7600 -0.025
6.8000 0.002
6.8400 -0.030
6.8800 -0.035
6.9200 -0.096
6.9600 -0.058
7.0000 0.073
7.0400 0.039
7.0800 0.019
7.1200 -0.088
7.1600 0.009
7.2000 0.052
7.2400 0.014
7.2800 -0.039
7.3200 -0.170
7.3600 0.090
7.4000 0.162
7.4400 0.162
7.4800 0.091
7.5200 0.140
7.5600 0.001
7.6000 0.013
7.6400 0.102
7.6800 0.026
7.7200 0.023
7.7600 0.091
7.8000 0.047
7.8400 0.026
7.8800 -0.044
7.9200 -0.095
7.9600 -0.012
8.0000 0.116
8.0400 -0.007
8.0800 0.021
8.1200 -0.120
8.1600 -0.024
8.2000 0.075
8.2400 0.035
8.2800 0.053
8.3200 0.092
8.3600 -0.064
8.4000 -0.082
8.4400 0.138
8.4800 -0.021
8.5200 0.072
8.5600 0.015
8.6000 -0.026
8.6400 0.151
8.6800 -0.018
8.7200 -0.063
8.7600 0.043
8.8000 -0.028
8.8400 0.008
8.8800 -0.016
8.9200 0.041
8.9600 0.060
9.0000 0.004
9.0400 -0.094
9.0800 -0.017
9.1200 0.055
9.1600 0.038
9.2000 0.098
9.2400 0.133
9.2800 0.057
9.3200 0.033
9.3600 0.095
9.4000 0.184
9.4400 0.279
9.4800 -0.028
9.5200 -0.055
9.5600 0.154
9.6000 -0.002
9.6400 0.112
9.6800 -0.072
9.7200 0.005
9.7600 -0.037
9.8000 -0.105
9.8400 0.032
9.8800 -0.016
9.9200 0.133
9.9600 -0.023
10.0000 0.069
10.0400 0.065
10.0800 -0.051
10.1200 -0.088
10.1600 0.132
10.2000 0.233
10.2400 -0.038
10.2800 -0.053
10.3200 0.147
10.3600 -0.011
10.4000 -0.036
10.4400 0.161
10.4800 0.036
10.5200 -0.149
10.5600 -0.025
10.6000 0.046
10.6400 -0.157
10.6800 -0.049
10.7200 -0.004
10.7600 0.156
10.8000 -0.007
10.8400 0.140
10.8800 0.072
10.9200 0.137
10.9600 0.011
11.0000 0.046
11.0400 0.118
11.0800 0.021
11.1200 -0.005
11.1600 -0.044
11.2000 0.057
11.2400 -0.072
11.2800 0.068
11.3200 0.052
11.3600 -0.076
11.4000 0.048
11.4400 0.031
11.4800 0.049
11.5200 -0.060
11.5600 0.140
11.6000 -0.092
11.6400 -0.002
11.6800 -0.002
11.7200 0.049
11.7600 -0.050
11.8000 -0.146
11.8400 0.105
11.8800 -0.003
11.9200 0.076
11.9600 0.067
12.0000 0.011
12.0400 -0.039
12.0800 0.028
12.1200 -0.013
12.1600 -0.104
12.2000 0.008
12.2400 0.116
12.2800 0.073
12.3200 0.170
12.3600 -0.006
12.4000 0.030
12.4400 -0.057
12.4800 0.121
12.5200 0.181
12.5600 0.052
12.6000 -0.134
12.6400 -0.025
12.6800 0.056
12.7200 0.136
12.7600 0.008
12.8000 0.020
12.8400 0.088
12.8800 0.017
12.9200 0.003
12.9600 -0.118
13.0000 -0.006
13.0400 0.077
13.0800 -0.014
13.1200 0.068
13.1600 0.137
13.2000 -0.035
13.2400 -0.059
13.2800 -0.056
13.3200 -0.066
13.3600 0.162
13.4000 -0.144
13.4400 -0.021
13.4800 0.067
13.5200 0.090
13.5600 -0.018
13.6000 0.060
13.6400 0.203
13.6800 0.093
13.7200 0.133
13.7600 -0.032
13.8000 -0.117
13.8400 0.029
13.8800 0.222
13.9200 -0.100
13.9600 0.064
14.0000 0.003
14.0400 -0.130
14.0800 -0.003
14.1200 0.072
14.1600 0.073
14.2000 0.128
14.2400 0.014
14.2800 0.041
14.3200 -0.011
14.3600 0.073
14.4000 -0.057
14.4400 0.109
14.4800 0.084
14.5200 -0.155
14.5600 -0.074
14.6000 0.106
14.6400 -0.009
14.6800 0.011
14.7200 0.181
14.7600 0.095
14.8000 0.143
14.8400 0.136
14.8800 0.190
14.9200 -0.009
14.9600 -0.077
15.0000 0.199
15.0400 0.057
15.0800 -0.142
15.1200 0.011
15.1600 -0.015
15.2000 -0.015
15.2400 0.071
15.2800 0.081
15.3200 0.018
15.3600 -0.068
15.4000 0.029
15.4400 -0.096
15.4800 -0.088
15.5200 0.059
15.5600 -0.033
15.6000 0.025
15.6400 0.144
15.6800 -0.095
15.7200 0.048
15.7600 0.077
15.8000 0.077
15.8400 0.038
15.8800 0.107
15.9200 -0.017
15.9600 -0.152
16.0000 0.099
16.0400 0.105
16.0800 0.077
16.1200 -0.005
16.1600 0.032
16.2000 -0.089
16.2400 0.100
16.2800 -0.001
16.3200 0.082
16.3600 0.099
16.4000 0.156
16.4400 0.189
16.4800 -0.024
16.5200 -0.027
16.5600 -0.045
16.6000 0.010
16.6400 0.164
16.6800 -0.016
16.7200 -0.022
16.7600 0.208
16.8000 0.010
16.8400 -0.052
16.8800 -0.097
16.9200 -0.052
16.9600 0.083
17.0000 0.054
17.0400 -0.140
17.0800 0.021
17.1200 0.052
17.1600 -0.039
17.2000 0.106
17.2400 0.090
17.2800 -0.014
17.3200 0.043
17.3600 -0.055
17.4000 0.046
17.4400 -0.104
17.4800 0.061
17.5200 -0.106
17.5600 0.040
17.6000 -0.050
17.6400 -0.187
17.6800 0.157
17.7200 0.021
17.7600 0.060
17.8000 -0.014
17.8400 0.049
17.8800 0.016
17.9200 0.030
17.9600 -0.015
18.0000 -0.123
18.0400 0.013
18.0800 0.325
18.1200 0.385
18.1600 0.992
18.2000 0.949
18.2400 0.906
18.2800 0.504
18.3200 0.029
18.3600 0.153
18.4000 0.080
18.4400 0.168
18.4800 0.002
18.5200 -0.063
18.5600 0.073
18.6000 -0.027
18.6400 0.079
18.6800 0.051
18.7200 0.032
18.7600 -0.071
18.8000 -0.215
18.8400 0.070
18.8800 0.038
18.9200 0.110
18.9600 0.023
19.0000 0.047
19.0400 -0.045
19.0800 0.043
19.1200 0.008
19.1600 -0.128
19.2000 -0.008
19.2400 0.040
19.2800 -0.156
19.3200 -0.004
19.3600 -0.050
19.4000 -0.007
19.4400 -0.050
19.4800 0.189
19.5200 -0.093
19.5600 0.003
19.6000 0.012
19.6400 -0.120
19.6800 -0.012
19.7200 -0.127
19.7600 0.099
19.8000 0.037
19.8400 -0.006
19.8800 0.005
19.9200 -0.029
19.9600 -0.084
20.0000 -0.097
20.0400 0.009
20.0800 0.065
20.1200 -0.068
20.1600 0.073
20.2000 -0.014
20.2400 -0.004
20.2800 0.126
20.3200 -0.030
20.3600 0.053
20.4000 -0.112
20.4400 0.129
20.4800 0.021
20.5200 -0.214
20.5600 0.039
20.6000 -0.076
20.6400 -0.017
20.6800 0.066
20.7200 -0.067
20.7600 0.029
20.8000 0.172
20.8400 -0.040
20.8800 -0.114
20.9200 0.105
20.9600 0.087
21.0000 -0.136
21.0400 -0.086
21.0800 0.038
21.1200 -0.139
21.1600 0.015
21.2000 0.022
21.2400 0.009
21.2800 0.037
21.3200 0.156
21.3600 0.025
21.4000 -0.009
21.4400 0.125
21.4800 0.092
21.5200 -0.104
21.5600 0.030
21.6000 -0.073
21.6400 0.056
21.6800 -0.093
21.7200 -0.076
21.7600 0.011
21.8000 0.013
21.8400 -0.105
21.8800 0.003
21.9200 -0.038
21.9600 0.152
22.0000 0.112
22.0400 -0.035
22.0800 0.039
22.1200 0.054
22.1600 -0.066
22.2000 0.081
22.2400 0.240
22.2800 0.024
22.3200 -0.107
22.3600 0.054
22.4000 0.162
22.4400 -0.012
22.4800 0.036
22.5200 0.121
22.5600 -0.023
22.6000 0.048
22.6400 -0.051
22.6800 0.060
22.7200 0.188
22.7600 0.089
22.8000 -0.116
22.8400 -0.102
22.8800 0.127
22.9200 -0.103
22.9600 -0.021
23.0000 0.103
23.0400 0.223
23.0800 0.272
23.1200 0.008
23.1600 -0.057
23.2000 -0.056
23.2400 0.075
23.2800 0.218
23.3200 0.019
23.3600 0.004
23.4000 -0.060
23.4400 -0.038
23.4800 0.067
23.5200 -0.020
23.5600 -0.054
23.6000 -0.005
23.6400 0.100
23.6800 -0.123
23.7200 -0.005
23.7600 0.090
23.8000 0.110
23.8400 0.022
23.8800 0.067
23.9200 -0.039
23.9600 0.032
24.0000 0.000
24.0400 -0.008
24.0800 -0.066
24.1200 -0.034
24.1600 -0.061
24.2000 -0.036
24.2400 0.040
24.2800 0.010
24.3200 0.121
24.3600 -0.067
24.4000 0.017
24.4400 -0.045
24.4800 -0.001
24.5200 0.062
24.5600 0.094
24.6000 -0.110
24.6400 -0.009
24.6800 0.107
24.7200 0.001
24.7600 -0.233
24.8000 -0.001
24.8400 0.134
24.8800 0.001
24.9200 -0.070
24.9600 0.105
25.0000 0.039
25.0400 -0.102
25.0800 0.055
25.1200 0.066
25.1600 -0.089
25.2000 0.006
25.2400 0.146
25.2800 0.044
25.3200 -0.003
25.3600 0.023
25.4000 -0.053
25.4400 -0.133
25.4800 0.050
25.5200 0.024
25.5600 0.061
25.6000 0.068
25.6400 0.074
25.6800 0.030
25.7200 -0.099
25.7600 0.052
25.8000 0.077
25.8400 -0.096
25.8800 -0.009
25.9200 0.022
25.9600 0.242
26.0000 0.029
26.0400 0.000
26.0800 0.076
26.1200 0.090
26.1600 0.133
26.2000 -0.069
26.2400 0.022
26.2800 -0.041
26.3200 0.020
26.3600 0.080
26.4000 0.058
26.4400 -0.138
26.4800 0.136
26.5200 0.126
26.5600 0.048
26.6000 0.132
26.6400 0.124
26.6800 0.140
26.7200 0.271
26.7600 -0.073
26.8000 0.061
26.8400 0.127
26.8800 0.219
26.9200 -0.051
26.9600 -0.084
27.0000 0.129
27.0400 0.183
27.0800 0.122
27.1200 -0.049
27.1600 -0.100
27.2000 0.095
27.2400 0.293
27.2800 0.010
27.3200 -0.098
27.3600 -0.018
27.4000 -0.025
27.4400 -0.038
27.4800 0.044
27.5200 -0.021
27.5600 0.037
27.6000 0.037
27.6400 0.111
27.6800 0.081
27.7200 0.164
27.7600 0.151
27.8000 0.046
27.8400 0.019
27.8800 0.133
27.9200 0.088
27.9600 -0.081
28.0000 0.031
28.0400 0.031
28.0800 -0.068
28.1200 0.027
28.1600 0.087
28.2000 0.144
28.2400 -0.052
28.2800 -0.055
28.3200 0.194
28.3600 0.144
28.4000 -0.096
28.4400 -0.096
28.4800 0.058
28.5200 0.195
28.5600 0.146
28.6000 0.096
28.6400 0.042
28.6800 -0.086
28.7200 0.105
28.7600 -0.043
28.8000 -0.010
28.8400 0.114
28.8800 0.057
28.9200 -0.130
28.9600 0.042
29.0000 -0.189
29.0400 -0.042
29.0800 0.075
29.1200 0.106
29.1600 0.082
29.2000 -0.076
29.2400 -0.096
29.2800 -0.043
29.3200 0.156
29.3600 0.103
29.4000 -0.008
29.4400 0.036
29.4800 0.022
29.5200 -0.110
29.5600 -0.018
29.6000 0.023
29.6400 -0.049
29.6800 0.241
29.7200 0.137
29.7600 0.205
29.8000 0.388
29.8400 0.926
29.8800 2.270
29.9200 4.434
29.9600 4.655
30.0000 3.435
30.0400 2.175
30.0800 1.075
30.1200 0.573
30.1600 0.405
30.2000 0.302
30.2400 0.085
30.2800 0.013
30.3200 0.149
30.3600 0.125
30.4000 0.194
30.4400 0.053
30.4800 0.129
30.5200 0.081
30.5600 0.040
30.6000 -0.082
30.6400 -0.013
30.6800 -0.017
30.7200 0.102
30.7600 0.102
30.8000 -0.051
30.8400 -0.095
30.8800 0.047
30.9200 0.176
30.9600 0.100
31.0000 0.100
31.0400 0.118
31.0800 0.050
31.1200 0.049
31.1600 0.043
31.2000 0.162
31.2400 -0.148
31.2800 -0.061
31.3200 -0.065
31.3600 -0.106
31.4000 0.111
31.4400 0.142
31.4800 -0.095
31.5200 -0.095
31.5600 -0.001
31.6000 0.116
31.6400 -0.076
31.6800 0.052
31.7200 -0.024
31.7600 0.012
31.8000 0.006
31.8400 -0.047
31.8800 0.059
31.9200 0.019
31.9600 0.098
32.0000 0.030
32.0400 0.119
32.0800 -0.078
32.1200 0.154
32.1600 -0.176
32.2000 -0.094
32.2400 0.078
32.2800 0.057
32.3200 0.167
32.3600 0.081
32.4000 -0.035
32.4400 0.172
32.4800 0.274
32.5200 0.117
32.5600 0.086
32.6000 0.166
32.6400 0.100
32.6800 0.146
32.7200 -0.181
32.7600 -0.050
32.8000 0.110
32.8400 -0.025
32.8800 -0.020
32.9200 0.008
32.9600 0.002
33.0000 -0.050
33.0400 0.004
33.0800 0.120
33.1200 0.094
33.1600 0.027
33.2000 0.190
33.2400 0.134
33.2800 -0.004
33.3200 -0.146
33.3600 0.072
33.4000 -0.038
33.4400 -0.046
33.4800 0.022
33.5200 -0.168
33.5600 0.024
33.6000 0.076
33.6400 0.055
33.6800 0.118
33.7200 0.014
33.7600 0.169
33.8000 0.193
33.8400 0.004
33.8800 0.162
33.9200 -0.074
33.9600 -0.094
34.0000 -0.076
34.0400 -0.094
34.0800 -0.028
34.1200 -0.049
34.1600 0.085
34.2000 0.226
34.2400 0.013
34.2800 -0.203
34.3200 -0.011
34.3600 0.058
34.4000 -0.015
34.4400 0.098
34.4800 0.065
34.5200 0.028
34.5600 -0.105
34.6000 -0.027
34.6400 0.132
34.6800 0.092
34.7200 0.129
34.7600 0.214
34.8000 0.106
34.8400 0.079
34.8800 0.225
34.9200 0.291
34.9600 0.159
35.0000 0.375
35.0400 0.542
35.0800 0.927
35.1200 1.241
35.1600 2.490
35.2000 5.146
35.2400 11.188
35.2800 13.861
35.3200 11.089
35.3600 9.011
35.4000 5.583
35.4400 2.658
35.4800 1.456
35.5200 1.021
35.5600 0.869
35.6000 0.623
35.6400 0.536
35.6800 0.325
35.7200 0.339
35.7600 0.074
35.8000 0.104
35.8400 0.055
35.8800 0.257
35.9200 0.042
35.9600 0.059
36.0000 0.036
36.0400 0.040
36.0800 -0.043
36.1200 -0.140
36.1600 0.037
36.2000 -0.070
36.2400 0.035
36.2800 0.008
36.3200 -0.199
36.3600 0.068
36.4000 0.053
36.4400 -0.087
36.4800 -0.104
36.5200 0.090
36.5600 -0.129
36.6000 -0.083
36.6400 -0.010
36.6800 0.080
36.7200 0.102
36.7600 0.092
36.8000 0.030
36.8400 0.573
36.8800 0.770
36.9200 0.988
36.9600 0.627
37.0000 0.566
37.0400 0.355
37.0800 -0.022
37.1200 0.001
37.1600 -0.036
37.2000 -0.105
37.2400 0.043
37.2800 -0.216
37.3200 -0.041
37.3600 0.014
37.4000 -0.007
37.4400 -0.093
37.4800 -0.092
37.5200 0.083
37.5600 -0.091
37.6000 -0.026
37.6400 0.073
37.6800 -0.095
37.7200 -0.006
37.7600 -0.106
37.8000 0.132
37.8400 0.126
37.8800 0.054
37.9200 -0.087
37.9600 0.009
38.0000 -0.060
38.0400 0.057
38.0800 0.025
38.1200 0.136
38.1600 0.060
38.2000 -0.115
38.2400 -0.002
38.2800 0.018
38.3200 0.072
38.3600 0.016
38.4000 -0.080
38.4400 0.010
38.4800 0.053
38.5200 -0.064
38.5600 0.043
38.6000 -0.005
38.6400 -0.119
38.6800 -0.005
38.7200 0.094
38.7600 -0.041
38.8000 0.157
38.8400 0.105
38.8800 0.078
38.9200 -0.011
38.9600 -0.035
39.0000 -0.068
39.0400 -0.092
39.0800 -0.072
39.1200 0.023
39.1600 0.104
39.2000 0.009
39.2400 -0.055
39.2800 -0.020
39.3200 0.101
39.3600 0.073
39.4000 -0.026
39.4400 0.177
39.4800 0.069
39.5200 -0.024
39.5600 0.076
39.6000 0.068
39.6400 -0.091
39.6800 -0.043
39.7200 -0.020
39.7600 -0.023
39.8000 0.070
39.8400 0.024
39.8800 0.034
39.9200 0.048
39.9600 -0.067
40.0000 -0.052
40.0400 -0.011
40.0800 -0.059
40.1200 0.040
40.1600 0.027
40.2000 0.042
40.2400 0.054
40.2800 -0.046
40.3200 -0.015
40.3600 0.046
40.4000 -0.004
40.4400 0.021
40.4800 0.067
40.5200 -0.120
40.5600 0.131
40.6000 0.063
40.6400 -0.032
40.6800 -0.001
40.7200 0.029
40.7600 -0.076
40.8000 -0.105
40.8400 0.076
40.8800 0.134
40.9200 0.212
40.9600 0.038
41.0000 0.054
41.0400 -0.015
41.0800 -0.108
41.1200 0.091
41.1600 -0.035
41.2000 -0.091
41.2400 -0.100
41.2800 0.104
41.3200 -0.048
41.3600 -0.081
41.4000 -0.011
41.4400 0.045
41.4800 -0.045
41.5200 0.108
41.5600 0.046
41.6000 0.048
41.6400 0.016
41.6800 0.059
41.7200 -0.095
41.7600 0.022
41.8000 -0.070
41.8400 0.059
41.8800 -0.045
41.9200 0.058
41.9600 0.079
42.0000 0.146
42.0400 -0.014
42.0800 -0.044
42.1200 0.114
42.1600 0.080
42.2000 -0.016
42.2400 0.066
42.2800 -0.115
42.3200 0.137
42.3600 -0.059
42.4000 -0.125
42.4400 0.055
42.4800 0.140
42.5200 0.030
42.5600 0.285
42.6000 0.125
42.6400 0.145
42.6800 0.180
42.7200 0.475
42.7600 0.335
42.8000 0.930
42.8400 1.847
42.8800 2.514
42.9200 1.793
42.9600 1.323
43.0000 1.358
43.0400 0.807
43.0800 0.483
43.1200 0.164
43.1600 0.350
43.2000 0.087
43.2400 -0.175
43.2800 0.147
43.3200 0.229
43.3600 0.152
43.4000 0.134
43.4400 -0.158
43.4800 -0.029
43.5200 -0.042
43.5600 0.119
43.6000 -0.024
43.6400 -0.038
43.6800 -0.107
43.7200 0.117
43.7600 0.030
43.8000 0.046
43.8400 -0.059
43.8800 -0.091
43.9200 -0.034
43.9600 -0.016
44.0000 0.065
44.0400 0.102
44.0800 0.099
44.1200 0.030
44.1600 -0.032
44.2000 0.005
44.2400 0.032
44.2800 0.019
44.3200 0.133
44.3600 0.160
44.4000 -0.028
44.4400 0.073
44.4800 0.010
44.5200 0.076
44.5600 0.056
44.6000 0.202
44.6400 -0.015
44.6800 -0.090
44.7200 0.007
44.7600 -0.003
44.8000 -0.098
44.8400 0.051
44.8800 -0.044
44.9200 0.003
44.9600 0.096
45.0000 0.188
45.0400 -0.014
45.0800 0.160
45.1200 -0.078
45.1600 -0.006
45.2000 0.012
45.2400 0.003
45.2800 -0.040
45.3200 -0.016
45.3600 0.082
45.4000 -0.126
45.4400 -0.084
45.4800 -0.063
45.5200 0.068
45.5600 0.040
45.6000 0.169
45.6400 0.086
45.6800 0.050
45.7200 0.142
45.7600 0.087
45.8000 0.015
45.8400 -0.040
45.8800 0.161
45.9200 0.025
45.9600 0.030
46.0000 0.128
46.0400 0.174
46.0800 0.088
46.1200 0.025
46.1600 -0.027
46.2000 0.066
46.2400 -0.058
46.2800 -0.105
46.3200 0.055
46.3600 0.029
46.4000 0.078
46.4400 0.053
46.4800 0.076
46.5200 0.014
46.5600 -0.061
46.6000 -0.007
46.6400 -0.115
46.6800 0.167
46.7200 0.039
46.7600 0.024
46.8000 0.157
46.8400 -0.030
46.8800 -0.007
46.9200 0.227
46.9600 0.046
47.0000 0.151
47.0400 0.207
47.0800 0.199
47.1200 0.001
47.1600 0.066
47.2000 -0.034
47.2400 -0.089
47.2800 -0.046
47.3200 -0.191
47.3600 0.191
47.4000 -0.072
47.4400 0.076
47.4800 -0.042
47.5200 -0.005
47.5600 0.073
47.6000 -0.089
47.6400 -0.077
47.6800 0.061
47.7200 0.248
47.7600 -0.058
47.8000 0.124
47.8400 0.134
47.8800 0.027
47.9200 -0.003
47.9600 -0.138
48.0000 0.000
48.0400 0.127
48.0800 0.235
48.1200 0.159
48.1600 0.162
48.2000 -0.086
48.2400 0.082
48.2800 -0.071
48.3200 0.068
48.3600 0.023
48.4000 0.018
48.4400 0.207
48.4800 -0.005
48.5200 0.063
48.5600 0.128
48.6000 -0.085
48.6400 -0.016
48.6800 -0.062
48.7200 0.054
48.7600 0.094
48.8000 -0.049
48.8400 -0.087
48.8800 0.130
48.9200 -0.166
48.9600 -0.089
49.0000 0.025
49.0400 0.028
49.0800 0.031
49.1200 -0.038
49.1600 0.000
49.2000 -0.044
49.2400 -0.005
49.2800 0.048
49.3200 0.122
49.3600 -0.073
49.4000 -0.014
49.4400 -0.122
49.4800 0.080
49.5200 0.087
49.5600 0.068
49.6000 0.016
49.6400 -0.006
49.6800 -0.100
49.7200 0.022
49.7600 -0.027
49.8000 -0.035
49.8400 -0.089
49.8800 0.031
49.9200 0.015
49.9600 -0.122
50.0000 0.071
50.0400 -0.042
50.0800 -0.077
50.1200 0.121
50.1600 0.002
50.2000 0.037
50.2400 -0.043
50.2800 -0.205
50.3200 0.147
50.3600 0.091
50.4000 0.112
50.4400 0.115
50.4800 0.091
50.5200 0.001
50.5600 -0.055
50.6000 -0.076
50.6400 0.037
50.6800 -0.007
50.7200 0.082
50.7600 0.067
50.8000 0.114
50.8400 0.077
50.8800 -0.014
50.9200 -0.089
50.9600 -0.072
51.0000 0.089
51.0400 -0.186
51.0800 0.046
51.1200 0.166
51.1600 -0.006
51.2000 0.122
51.2400 -0.055
51.2800 -0.103
51.3200 0.056
51.3600 0.023
51.4000 0.006
51.4400 -0.007
51.4800 -0.036
51.5200 0.013
51.5600 -0.058
51.6000 -0.024
51.6400 0.015
51.6800 0.020
51.7200 -0.087
51.7600 0.067
51.8000 0.101
51.8400 0.012
51.8800 0.033
51.9200 0.033
51.9600 -0.044
52.0000 -0.019
52.0400 0.153
52.0800 -0.012
52.1200 -0.031
52.1600 -0.023
52.2000 -0.088
52.2400 -0.119
52.2800 0.211
52.3200 -0.037
52.3600 -0.082
52.4000 0.113
52.4400 -0.042
52.4800 0.047
52.5200 -0.027
52.5600 0.031
52.6000 0.080
52.6400 0.044
52.6800 0.096
52.7200 -0.114
52.7600 -0.003
52.8000 -0.006
52.8400 0.210
52.8800 0.067
52.9200 0.077
52.9600 -0.199
53.0000 -0.079
53.0400 0.009
53.0800 0.272
53.1200 0.329
53.1600 1.286
53.2000 1.357
53.2400 0.975
53.2800 0.746
53.3200 0.849
53.3600 0.620
53.4000 0.238
53.4400 0.221
53.4800 0.050
53.5200 0.084
53.5600 0.018
53.6000 -0.003
53.6400 0.000
53.6800 -0.010
53.7200 0.026
53.7600 0.049
53.8000 0.009
53.8400 -0.023
53.8800 0.016
53.9200 0.031
53.9600 -0.071
54.0000 -0.089
54.0400 0.134
54.0800 0.047
54.1200 0.046
54.1600 0.033
54.2000 0.041
54.2400 -0.142
54.2800 0.031
54.3200 0.039
54.3600 -0.224
54.4000 -0.040
54.4400 -0.018
54.4800 0.025
54.5200 -0.012
54.5600 -0.170
54.6000 0.014
54.6400 -0.083
54.6800 -0.013
54.7200 -0.022
54.7600 0.043
54.8000 -0.056
54.8400 -0.003
54.8800 0.088
54.9200 -0.129
54.9600 -0.013
55.0000 0.037
55.0400 -0.073
55.0800 -0.032
55.1200 -0.014
55.1600 -0.072
55.2000 -0.088
55.2400 -0.072
55.2800 -0.013
55.3200 -0.021
55.3600 -0.087
55.4000 0.014
55.4400 0.138
55.4800 -0.070
55.5200 -0.041
55.5600 -0.024
55.6000 0.192
55.6400 -0.083
55.6800 -0.016
55.7200 -0.058
55.7600 0.018
55.8000 -0.177
55.8400 -0.012
55.8800 0.077
55.9200 -0.059
55.9600 -0.081
56.0000 -0.088
56.0400 -0.083
56.0800 0.021
56.1200 -0.230
56.1600 0.092
56.2000 0.119
56.2400 0.338
56.2800 0.012
56.3200 0.146
56.3600 0.026
56.4000 0.255
56.4400 0.144
56.4800 0.354
56.5200 0.428
56.5600 0.506
56.6000 0.791
56.6400 1.857
56.6800 3.349
56.7200 3.643
56.7600 2.483
56.8000 2.010
56.8400 2.184
56.8800 2.117
56.9200 1.249
56.9600 0.644
57.0000 0.512
57.0400 0.353
57.0800 0.159
57.1200 0.177
57.1600 0.103
57.2000 0.168
57.2400 0.004
57.2800 -0.098
57.3200 0.044
57.3600 0.059
57.4000 0.090
57.4400 0.033
57.4800 0.034
57.5200 -0.073
57.5600 -0.088
57.6000 0.021
57.6400 -0.086
57.6800 -0.010
57.7200 0.240
57.7600 -0.167
57.8000 0.035
57.8400 0.364
57.8800 0.105
57.9200 0.091
57.9600 0.080
58.0000 0.060
58.0400 -0.104
58.0800 0.052
58.1200 -0.122
58.1600 -0.058
58.2000 0.079
58.2400 0.061
58.2800 -0.042
58.3200 0.026
58.3600 -0.026
58.4000 -0.050
58.4400 0.069
58.4800 -0.052
58.5200 0.040
58.5600 0.108
58.6000 0.100
58.6400 0.086
58.6800 0.002
58.7200 -0.087
58.7600 -0.011
58.8000 -0.151
58.8400 0.063
58.8800 -0.021
58.9200 0.028
58.9600 0.047
59.0000 -0.015
59.0400 -0.057
59.0800 0.000
59.1200 0.043
59.1600 -0.040
59.2000 0.159
59.2400 0.006
59.2800 -0.120
59.3200 0.047
59.3600 -0.107
59.4000 0.140
59.4400 -0.051
59.4800 0.218
59.5200 -0.141
59.5600 -0.009
59.6000 0.054
59.6400 -0.031
59.6800 0.039
59.7200 -0.047
59.7600 -0.030
59.8000 -0.118
59.8400 0.074
59.8800 -0.042
59.9200 0.114
59.9600 0.031
60.0000 -0.009
60.0400 -0.029
60.0800 0.028
60.1200 -0.077
60.1600 -0.023
60.2000 0.021
60.2400 -0.087
60.2800 -0.031
60.3200 0.078
60.3600 0.035
60.4000 0.111
60.4400 0.018
60.4800 0.120
60.5200 -0.037
60.5600 -0.017
60.6000 -0.034
60.6400 0.069
60.6800 0.079
60.7200 -0.006
60.7600 0.006
60.8000 -0.008
60.8400 0.018
60.8800 -0.048
60.9200 -0.065
60.9600 0.035
61.0000 -0.092
61.0400 -0.037
61.0800 0.087
61.1200 0.105
61.1600 0.035
61.2000 0.085
61.2400 0.024
61.2800 -0.181
61.3200 0.021
61.3600 -0.106
61.4000 -0.026
61.4400 0.142
61.4800 0.169
61.5200 0.131
61.5600 0.018
61.6000 0.149
61.6400 0.200
61.6800 0.056
61.7200 0.059
61.7600 0.123
61.8000 0.184
61.8400 -0.006
61.8800 -0.052
61.9200 0.144
61.9600 0.322
62.0000 0.495
62.0400 0.320
62.0800 0.417
62.1200 0.565
62.1600 1.051
62.2000 2.230
62.2400 3.906
62.2800 4.470
62.3200 3.001
62.3600 2.092
62.4000 2.328
62.4400 2.751
62.4800 1.946
62.5200 1.087
62.5600 0.610
62.6000 0.308
62.6400 0.283
62.6800 0.311
62.7200 0.212
62.7600 -0.007
62.8000 -0.004
62.8400 0.039
62.8800 0.064
62.9200 0.038
62.9600 0.121
63.0000 0.180
63.0400 0.152
63.0800 0.037
63.1200 0.061
63.1600 0.148
63.2000 0.031
63.2400 -0.024
63.2800 0.006
63.3200 -0.090
63.3600 -0.009
63.4000 0.014
63.4400 0.026
63.4800 -0.113
63.5200 0.014
63.5600 -0.064
63.6000 -0.038
63.6400 0.046
63.6800 -0.101
63.7200 0.084
63.7600 -0.177
63.8000 -0.069
63.8400 0.011
63.8800 0.075
63.9200 -0.014
63.9600 -0.063
64.0000 -0.035
64.0400 0.005
64.0800 0.018
64.1200 0.042
64.1600 -0.065
64.2000 -0.060
64.2400 0.086
64.2800 0.150
64.3200 -0.007
64.3600 0.122
64.4000 0.082
64.4400 0.015
64.4800 0.096
64.5200 -0.023
64.5600 -0.008
64.6000 0.051
64.6400 -0.194
64.6800 0.079
64.7200 -0.066
64.7600 -0.093
64.8000 0.058
64.8400 0.005
64.8800 0.008
64.9200 -0.101
64.9600 0.141
65.0000 0.012
65.0400 -0.003
65.0800 0.123
65.1200 -0.006
65.1600 -0.059
65.2000 0.044
65.2400 0.007
65.2800 0.019
65.3200 0.158
65.3600 0.037
65.4000 0.057
65.4400 -0.002
65.4800 0.122
65.5200 0.097
65.5600 0.212
65.6000 0.014
65.6400 0.063
65.6800 0.020
65.7200 -0.015
65.7600 0.069
65.8000 0.036
65.8400 -0.020
65.8800 -0.086
65.9200 0.001
65.9600 0.087
66.0000 0.090
66.0400 0.042
66.0800 0.047
66.1200 -0.063
66.1600 -0.014
66.2000 -0.013
66.2400 -0.054
66.2800 -0.244
66.3200 0.155
66.3600 0.068
66.4000 -0.020
66.4400 -0.106
66.4800 0.072
66.5200 -0.082
66.5600 -0.053
66.6000 -0.177
66.6400 0.050
66.6800 -0.089
66.7200 -0.023
66.7600 -0.084
66.8000 -0.059
66.8400 -0.032
66.8800 0.016
66.9200 -0.050
66.9600 0.059
67.0000 -0.073
67.0400 -0.087
67.0800 -0.016
67.1200 -0.093
67.1600 0.014
67.2000 0.049
67.2400 -0.052
67.2800 0.028
67.3200 -0.053
67.3600 0.038
67.4000 -0.100
67.4400 -0.015
67.4800 -0.030
67.5200 0.115
67.5600 -0.050
67.6000 -0.044
67.6400 0.007
67.6800 -0.066
67.7200 0.050
67.7600 -0.103
67.8000 0.072
67.8400 -0.008
67.8800 0.007
67.9200 0.094
67.9600 0.092
68.0000 0.311
68.0400 0.135
68.0800 0.153
68.1200 0.127
68.1600 0.058
68.2000 0.181
68.2400 0.260
68.2800 0.238
68.3200 0.181
68.3600 0.394
68.4000 0.210
68.4400 0.195
68.4800 0.189
68.5200 0.285
68.5600 0.524
68.6000 0.582
68.6400 0.799
68.6800 1.196
68.7200 1.796
68.7600 2.024
68.8000 2.094
68.8400 2.275
68.8800 2.785
68.9200 3.690
68.9600 6.549
69.0000 15.609
69.0400 82.418
69.0800 207.249
69.1200 152.870
69.1600 41.532
69.2000 18.469
69.2400 52.247
69.2800 108.961
69.3200 75.705
69.3600 20.933
69.4000 6.448
69.4400 3.836
69.4800 2.601
69.5200 2.135
69.5600 1.338
69.6000 1.382
69.6400 1.092
69.6800 0.782
69.7200 0.670
69.7600 0.774
69.8000 0.549
69.8400 0.448
69.8800 0.465
69.9200 0.373
69.9600 0.317
70.0000 0.230
70.0400 0.346
70.0800 0.422
70.1200 0.412
70.1600 0.228
70.2000 0.209
70.2400 0.278
70.2800 0.299
70.3200 0.223
70.3600 0.162
70.4000 0.113
70.4400 0.144
70.4800 0.201
70.5200 0.164
70.5600 0.144
70.6000 0.366
70.6400 0.237
70.6800 0.409
70.7200 0.254
70.7600 0.213
70.8000 0.046
70.8400 0.221
70.8800 0.057
70.9200 0.038
70.9600 0.085
71.0000 0.001
71.0400 0.009
71.0800 0.133
71.1200 0.027
71.1600 0.174
71.2000 -0.114
71.2400 0.083
71.2800 0.097
71.3200 -0.021
71.3600 -0.016
71.4000 -0.041
71.4400 -0.160
71.4800 0.042
71.5200 -0.006
71.5600 0.101
71.6000 -0.076
71.6400 0.025
71.6800 0.013
71.7200 0.045
71.7600 -0.025
71.8000 -0.031
71.8400 -0.085
71.8800 -0.047
71.9200 -0.011
71.9600 0.078
72.0000 -0.073
72.0400 -0.066
72.0800 -0.018
72.1200 -0.073
72.1600 -0.041
72.2000 0.113
72.2400 0.039
72.2800 0.026
72.3200 -0.059
72.3600 -0.036
72.4000 -0.005
72.4400 0.013
72.4800 -0.061
72.5200 0.086
72.5600 -0.021
72.6000 0.057
72.6400 -0.072
72.6800 0.061
72.7200 -0.038
72.7600 -0.063
72.8000 0.046
72.8400 -0.022
72.8800 0.032
72.9200 -0.008
72.9600 0.009
73.0000 0.088
73.0400 0.098
73.0800 0.011
73.1200 -0.060
73.1600 -0.118
73.2000 0.055
73.2400 0.060
73.2800 -0.006
73.3200 -0.031
73.3600 0.071
73.4000 -0.030
73.4400 0.017
73.4800 -0.041
73.5200 0.017
73.5600 0.349
73.6000 0.397
73.6400 0.788
73.6800 0.592
73.7200 0.414
73.7600 0.370
73.8000 0.153
73.8400 0.388
73.8800 0.509
73.9200 0.289
73.9600 0.276
74.0000 0.021
74.0400 0.096
74.0800 0.035
74.1200 -0.077
74.1600 0.015
74.2000 -0.043
74.2400 -0.084
74.2800 -0.018
74.3200 -0.085
74.3600 0.079
74.4000 -0.004
74.4400 0.130
74.4800 0.014
74.5200 0.045
74.5600 0.296
74.6000 0.364
74.6400 0.312
74.6800 0.311
74.7200 0.098
74.7600 0.131
74.8000 0.205
74.8400 0.110
74.8800 0.192
74.9200 0.137
74.9600 0.094
75.0000 0.008
75.0400 0.098
75.0800 -0.073
75.1200 0.085
75.1600 -0.037
75.2000 -0.036
75.2400 0.039
75.2800 -0.012
75.3200 0.103
75.3600 0.083
75.4000 0.054
75.4400 0.165
75.4800 -0.008
75.5200 -0.038
75.5600 -0.083
75.6000 -0.033
75.6400 -0.091
75.6800 0.162
75.7200 -0.033
75.7600 0.113
75.8000 0.089
75.8400 -0.001
75.8800 -0.058
75.9200 -0.104
75.9600 0.058
76.0000 -0.062
76.0400 0.026
76.0800 -0.031
76.1200 -0.031
76.1600 0.050
76.2000 -0.091
76.2400 -0.050
76.2800 0.101
76.3200 -0.097
76.3600 0.032
76.4000 -0.020
76.4400 0.033
76.4800 0.082
76.5200 0.091
76.5600 -0.087
76.6000 -0.079
76.6400 0.071
76.6800 0.023
76.7200 -0.083
76.7600 -0.029
76.8000 0.094
76.8400 -0.030
76.8800 0.072
76.9200 -0.173
76.9600 0.017
77.0000 -0.103
77.0400 0.099
77.0800 0.032
77.1200 0.011
77.1600 0.111
77.2000 0.040
77.2400 0.006
77.2800 -0.020
77.3200 0.007
77.3600 0.072
77.4000 0.092
77.4400 0.093
77.4800 0.152
77.5200 0.013
77.5600 -0.083
77.6000 -0.025
77.6400 0.003
77.6800 0.017
77.7200 -0.081
77.7600 0.002
77.8000 -0.028
77.8400 0.028
77.8800 -0.085
77.9200 -0.002
77.9600 -0.029
78.0000 -0.083
78.0400 0.004
78.0800 0.146
78.1200 0.072
78.1600 0.050
78.2000 0.005
78.2400 0.060
78.2800 0.052
78.3200 -0.153
78.3600 -0.020
78.4000 0.056
78.4400 0.115
78.4800 0.034
78.5200 0.137
78.5600 0.178
78.6000 0.358
78.6400 0.184
78.6800 0.216
78.7200 -0.003
78.7600 0.048
78.8000 0.196
78.8400 0.122
78.8800 0.114
78.9200 0.041
78.9600 0.009
79.0000 0.014
79.0400 -0.071
79.0800 0.035
79.1200 0.018
79.1600 -0.046
79.2000 0.057
79.2400 0.086
79.2800 -0.099
79.3200 -0.053
79.3600 0.040
79.4000 -0.080
79.4400 -0.083
79.4800 0.048
79.5200 0.053
79.5600 -0.083
79.6000 -0.080
79.6400 0.084
79.6800 0.184
79.7200 0.062
79.7600 0.091
79.8000 -0.070
79.8400 -0.105
79.8800 0.198
79.9200 -0.118
79.9600 -0.083
80.0000 0.000
