10.010866440 5341.0
10.032599320 5443.0
10.054332200 5626.0
10.076065080 5432.0
10.097797960 5433.0
10.119530840 5435.0
10.141263720 5480.0
10.162996600 5528.0
10.184729480 5533.0
10.206462360 5517.0
10.228195240 5488.0
10.249928120 5441.0
10.271661000 5471.0
10.293393880 5342.0
10.315126760 5584.0
10.336859640 5567.0
10.358592520 5488.0
10.380325400 5416.0
10.402058280 5361.0
10.423791160 5438.0
10.445524040 5564.0
10.467256920 5622.0
10.488989800 5527.0
10.510722680 5443.0
10.532455560 5684.0
10.554188440 5426.0
10.575921320 5601.0
10.597654200 5520.0
10.619387080 5738.0
10.641119960 5617.0
10.662852840 5685.0
10.684585720 5567.0
10.706318600 5503.0
10.728051480 5485.0
10.749784360 5588.0
10.771517240 5596.0
10.793250120 5634.0
10.814983000 5620.0
10.836715880 5573.0
10.858448760 5582.0
10.880181640 5798.0
10.901914520 5855.0
10.923647400 5825.0
10.945380280 5955.0
10.967113160 5883.0
10.988846040 6119.0
11.010578920 6028.0
11.032311800 5978.0
11.054044680 5785.0
11.075777560 5562.0
11.097510440 5623.0
11.119243320 5593.0
11.140976200 5499.0
11.162709080 5447.0
11.184441960 5462.0
11.206174840 5548.0
11.227907720 5686.0
11.249640600 5496.0
11.271373480 5757.0
11.293106360 5695.0
11.314839240 5700.0
11.336572120 5590.0
11.358305000 5594.0
11.380037880 5653.0
11.401770760 5491.0
11.423503640 5574.0
11.445236520 5644.0
11.466969400 5589.0
11.488702280 5784.0
11.510435160 5538.0
11.532168040 5649.0
11.553900920 5653.0
11.575633800 5650.0
11.597366680 5586.0
11.619099560 5574.0
11.640832440 5500.0
11.662565320 5544.0
11.684298200 5574.0
11.706031080 5530.0
11.727763960 5588.0
11.749496840 5554.0
11.771229720 5684.0
11.792962600 5590.0
11.814695480 5461.0
11.836428360 5548.0
11.858161240 5668.0
11.879894120 5607.0
11.901627000 5554.0
11.923359880 5601.0
11.945092760 5644.0
11.966825640 5535.0
11.988558520 5637.0
12.010291400 5513.0
12.032024280 5593.0
12.053757160 5652.0
12.075490040 5538.0
12.097222920 5823.0
12.118955800 5509.0
12.140688680 5597.0
12.162421560 5654.0
12.184154440 5594.0
12.205887320 5650.0
12.227620200 5570.0
12.249353080 5684.0
12.271085960 5502.0
12.292818840 5514.0
12.314551720 5559.0
12.336284600 5497.0
12.358017480 5439.0
12.379750360 5581.0
12.401483240 5576.0
12.423216120 5514.0
12.444949000 5536.0
12.466681880 5604.0
12.488414760 5704.0
12.510147640 5607.0
12.531880520 5672.0
12.553613400 5593.0
12.575346280 5426.0
12.597079160 5554.0
12.618812040 5634.0
12.640544920 5711.0
12.662277800 5546.0
12.684010680 5613.0
12.705743560 5631.0
12.727476440 5624.0
12.749209320 5721.0
12.770942200 5646.0
12.792675080 5701.0
12.814407960 5633.0
12.836140840 5773.0
12.857873720 5624.0
12.879606600 5722.0
12.901339480 5772.0
12.923072360 5546.0
12.944805240 5625.0
12.966538120 5724.0
12.988271000 5713.0
13.010003880 5705.0
13.031736760 5754.0
13.053469640 5767.0
13.075202520 5718.0
13.096935400 5730.0
13.118668280 5901.0
13.140401160 5880.0
13.162134040 5849.0
13.183866920 5854.0
13.205599800 6056.0
13.227332680 6275.0
13.249065560 6257.0
13.270798440 6394.0
13.292531320 6420.0
13.314264200 6615.0
13.335997080 6760.0
13.357729960 6993.0
13.379462840 7098.0
13.401195720 7286.0
13.422928600 7289.0
13.444661480 7139.0
13.466394360 7059.0
13.488127240 6772.0
13.509860120 6550.0
13.531593000 6264.0
13.553325880 6228.0
13.575058760 5899.0
13.596791640 6005.0
13.618524520 5880.0
13.640257400 5838.0
13.661990280 5931.0
13.683723160 5731.0
13.705456040 5741.0
13.727188920 5782.0
13.748921800 5988.0
13.770654680 5943.0
13.792387560 5877.0
13.814120440 5873.0
13.835853320 5845.0
13.857586200 5905.0
13.879319080 6060.0
13.901051960 6255.0
13.922784840 6247.0
13.944517720 6105.0
13.966250600 6245.0
13.987983480 6310.0
14.009716360 6154.0
14.031449240 6115.0
14.053182120 6037.0
14.074915000 6165.0
14.096647880 6092.0
14.118380760 6158.0
14.140113640 6359.0
14.161846520 6416.0
14.183579400 6583.0
14.205312280 6566.0
14.227045160 6590.0
14.248778040 6802.0
14.270510920 6800.0
14.292243800 6627.0
14.313976680 6692.0
14.335709560 6692.0
14.357442440 6447.0
14.379175320 6233.0
14.400908200 6088.0
14.422641080 6164.0
14.444373960 6185.0
14.466106840 6121.0
14.487839720 6062.0
14.509572600 6021.0
14.531305480 6093.0
14.553038360 6037.0
14.574771240 6226.0
14.596504120 6053.0
14.618237000 6021.0
14.639969880 6116.0
14.661702760 6202.0
14.683435640 6195.0
14.705168520 6268.0
14.726901400 6233.0
14.748634280 6378.0
14.770367160 6407.0
14.792100040 6624.0
14.813832920 6912.0
14.835565800 7037.0
14.857298680 7182.0
14.879031560 7408.0
14.900764440 7834.0
14.922497320 8057.0
14.944230200 8752.0
14.965963080 9373.0
14.987695960 9771.0
15.009428840 10677.0
15.031161720 11464.0
15.052894600 12352.0
15.074627480 13097.0
15.096360360 14088.0
15.118093240 15566.0
15.139826120 16722.0
15.161559000 18712.0
15.183291880 20755.0
15.205024760 24000.0
15.226757640 27850.0
15.248490520 33425.0
15.270223400 40202.0
15.291956280 48845.0
15.313689160 59972.0
15.335422040 73963.0
15.357154920 90577.0
15.378887800 111455.0
15.400620680 135951.0
15.422353560 164741.0
15.444086440 197328.0
15.465819320 227149.0
15.487552200 218928.0
15.509285080 167293.0
15.531017960 106626.0
15.552750840 57518.0
15.574483720 30222.0
15.596216600 19331.0
15.617949480 14788.0
15.639682360 12763.0
15.661415240 11637.0
15.683148120 11289.0
15.704881000 10738.0
15.726613880 10346.0
15.748346760 10070.0
15.770079640 9712.0
15.791812520 9479.0
15.813545400 9127.0
15.835278280 8723.0
15.857011160 8301.0
15.878744040 8257.0
15.900476920 8085.0
15.922209800 8127.0
15.943942680 8001.0
15.965675560 8123.0
15.987408440 8252.0
16.009141320 8505.0
16.030874200 8672.0
16.052607080 8855.0
16.074339960 9094.0
16.096072840 9217.0
16.117805720 9647.0
16.139538600 9607.0
16.161271480 9792.0
16.183004360 9736.0
16.204737240 9889.0
16.226470120 10000.0
16.248203000 9983.0
16.269935880 10404.0
16.291668760 10803.0
16.313401640 10960.0
16.335134520 10987.0
16.356867400 10605.0
16.378600280 10261.0
16.400333160 9603.0
16.422066040 9047.0
16.443798920 8406.0
16.465531800 7937.0
16.487264680 7383.0
16.508997560 7122.0
16.530730440 6936.0
16.552463320 6974.0
16.574196200 6903.0
16.595929080 6587.0
16.617661960 6518.0
16.639394840 6540.0
16.661127720 6550.0
16.682860600 6486.0
16.704593480 6456.0
16.726326360 6511.0
16.748059240 6449.0
16.769792120 6347.0
16.791525000 6401.0
16.813257880 6462.0
16.834990760 6562.0
16.856723640 6475.0
16.878456520 6384.0
16.900189400 6409.0
16.921922280 6618.0
16.943655160 6592.0
16.965388040 6640.0
16.987120920 6627.0
17.008853800 6622.0
17.030586680 6971.0
17.052319560 7092.0
17.074052440 7088.0
17.095785320 7162.0
17.117518200 7164.0
17.139251080 7435.0
17.160983960 7372.0
17.182716840 7507.0
17.204449720 7272.0
17.226182600 7027.0
17.247915480 6845.0
17.269648360 6749.0
17.291381240 6238.0
17.313114120 6352.0
17.334847000 6229.0
17.356579880 6215.0
17.378312760 6289.0
17.400045640 6124.0
17.421778520 6155.0
17.443511400 6226.0
17.465244280 6174.0
17.486977160 6049.0
17.508710040 5997.0
17.530442920 6190.0
17.552175800 6093.0
17.573908680 6273.0
17.595641560 6077.0
17.617374440 6164.0
17.639107320 6032.0
17.660840200 6081.0
17.682573080 6059.0
17.704305960 6031.0
17.726038840 6090.0
17.747771720 6038.0
17.769504600 6108.0
17.791237480 6243.0
17.812970360 6173.0
17.834703240 6200.0
17.856436120 6078.0
17.878169000 6160.0
17.899901880 6148.0
17.921634760 6227.0
17.943367640 6165.0
17.965100520 6096.0
17.986833400 6176.0
18.008566280 6240.0
18.030299160 6495.0
18.052032040 6350.0
18.073764920 6573.0
18.095497800 6780.0
18.117230680 7065.0
18.138963560 7239.0
18.160696440 7543.0
18.182429320 7661.0
18.204162200 7911.0
18.225895080 8024.0
18.247627960 7875.0
18.269360840 7637.0
18.291093720 7393.0
18.312826600 6984.0
18.334559480 6588.0
18.356292360 6531.0
18.378025240 6209.0
18.399758120 6172.0
18.421491000 6168.0
18.443223880 6194.0
18.464956760 6192.0
18.486689640 6051.0
18.508422520 6112.0
18.530155400 6323.0
18.551888280 6260.0
18.573621160 6258.0
18.595354040 6290.0
18.617086920 6361.0
18.638819800 6364.0
18.660552680 6314.0
18.682285560 6662.0
18.704018440 6809.0
18.725751320 6912.0
18.747484200 6699.0
18.769217080 6927.0
18.790949960 6920.0
18.812682840 6783.0
18.834415720 6758.0
18.856148600 6615.0
18.877881480 6564.0
18.899614360 6635.0
18.921347240 6591.0
18.943080120 6530.0
18.964813000 6456.0
18.986545880 6482.0
19.008278760 6404.0
19.030011640 6332.0
19.051744520 6248.0
19.073477400 6252.0
19.095210280 6094.0
19.116943160 5994.0
19.138676040 6005.0
19.160408920 5927.0
19.182141800 5966.0
19.203874680 5845.0
19.225607560 5940.0
19.247340440 5792.0
19.269073320 5826.0
19.290806200 6023.0
19.312539080 6012.0
19.334271960 5963.0
19.356004840 5876.0
19.377737720 5730.0
19.399470600 5748.0
19.421203480 5964.0
19.442936360 5884.0
19.464669240 5777.0
19.486402120 5813.0
19.508135000 5864.0
19.529867880 5741.0
19.551600760 5829.0
19.573333640 5610.0
19.595066520 5698.0
19.616799400 5750.0
19.638532280 5739.0
19.660265160 5976.0
19.681998040 5677.0
19.703730920 5754.0
19.725463800 5862.0
19.747196680 5826.0
19.768929560 5772.0
19.790662440 5743.0
19.812395320 5745.0
19.834128200 5800.0
19.855861080 5733.0
19.877593960 5797.0
19.899326840 5840.0
19.921059720 5643.0
19.942792600 5730.0
19.964525480 5830.0
19.986258360 5795.0
20.007991240 5841.0
20.029724120 5808.0
20.051457000 5814.0
20.073189880 5830.0
20.094922760 5787.0
20.116655640 5759.0
20.138388520 5936.0
20.160121400 5987.0
20.181854280 6099.0
20.203587160 6038.0
20.225320040 5913.0
20.247052920 5981.0
20.268785800 6069.0
20.290518680 6003.0
20.312251560 5983.0
20.333984440 5953.0
20.355717320 6025.0
20.377450200 5841.0
20.399183080 5803.0
20.420915960 5804.0
20.442648840 5975.0
20.464381720 5857.0
20.486114600 5842.0
20.507847480 5902.0
20.529580360 5804.0
20.551313240 5760.0
20.573046120 5842.0
20.594779000 6017.0
20.616511880 5773.0
20.638244760 5587.0
20.659977640 5717.0
20.681710520 5802.0
20.703443400 5797.0
20.725176280 5920.0
20.746909160 5811.0
20.768642040 5873.0
20.790374920 5798.0
20.812107800 5828.0
20.833840680 5797.0
20.855573560 5778.0
20.877306440 5930.0
20.899039320 6069.0
20.920772200 5911.0
20.942505080 5938.0
20.964237960 5899.0
20.985970840 6192.0
21.007703720 6100.0
21.029436600 6234.0
21.051169480 6427.0
21.072902360 6549.0
21.094635240 6736.0
21.116368120 6780.0
21.138101000 6879.0
21.159833880 7025.0
21.181566760 6977.0
21.203299640 6875.0
21.225032520 6881.0
21.246765400 6551.0
21.268498280 6255.0
21.290231160 6194.0
21.311964040 6015.0
21.333696920 5962.0
21.355429800 5990.0
21.377162680 5884.0
21.398895560 5820.0
21.420628440 5928.0
21.442361320 5925.0
21.464094200 5712.0
21.485827080 5788.0
21.507559960 5791.0
21.529292840 5854.0
21.551025720 5884.0
21.572758600 5837.0
21.594491480 5807.0
21.616224360 5886.0
21.637957240 5837.0
21.659690120 5796.0
21.681423000 5893.0
21.703155880 5831.0
21.724888760 5971.0
21.746621640 5875.0
21.768354520 5973.0
21.790087400 6074.0
21.811820280 6125.0
21.833553160 6263.0
21.855286040 6152.0
21.877018920 6013.0
21.898751800 6295.0
21.920484680 6149.0
21.942217560 6033.0
21.963950440 6036.0
21.985683320 5970.0
22.007416200 5987.0
22.029149080 6058.0
22.050881960 6159.0
22.072614840 6140.0
22.094347720 6110.0
22.116080600 6015.0
22.137813480 5884.0
22.159546360 5984.0
22.181279240 6011.0
22.203012120 6064.0
22.224745000 6124.0
22.246477880 5901.0
22.268210760 6069.0
22.289943640 5888.0
22.311676520 5917.0
22.333409400 5945.0
22.355142280 5878.0
22.376875160 5974.0
22.398608040 6040.0
22.420340920 6018.0
22.442073800 5750.0
22.463806680 6052.0
22.485539560 6171.0
22.507272440 6108.0
22.529005320 6145.0
22.550738200 6186.0
22.572471080 6307.0
22.594203960 6282.0
22.615936840 6290.0
22.637669720 6434.0
22.659402600 6480.0
22.681135480 6513.0
22.702868360 6520.0
22.724601240 6616.0
22.746334120 6522.0
22.768067000 6479.0
22.789799880 6709.0
22.811532760 6820.0
22.833265640 6967.0
22.854998520 7085.0
22.876731400 7490.0
22.898464280 7749.0
22.920197160 8110.0
22.941930040 8714.0
22.963662920 9180.0
22.985395800 9930.0
23.007128680 10464.0
23.028861560 10927.0
23.050594440 10763.0
23.072327320 10831.0
23.094060200 9936.0
23.115793080 9258.0
23.137525960 8558.0
23.159258840 7750.0
23.180991720 7353.0
23.202724600 7211.0
23.224457480 6859.0
23.246190360 7043.0
23.267923240 6925.0
23.289656120 6959.0
23.311389000 7449.0
23.333121880 7205.0
23.354854760 7286.0
23.376587640 7409.0
23.398320520 7148.0
23.420053400 7073.0
23.441786280 6926.0
23.463519160 6820.0
23.485252040 6649.0
23.506984920 6556.0
23.528717800 6370.0
23.550450680 6389.0
23.572183560 6432.0
23.593916440 6308.0
23.615649320 6300.0
23.637382200 6432.0
23.659115080 6305.0
23.680847960 6593.0
23.702580840 6554.0
23.724313720 6653.0
23.746046600 6409.0
23.767779480 6490.0
23.789512360 6398.0
23.811245240 6309.0
23.832978120 6457.0
23.854711000 6372.0
23.876443880 6156.0
23.898176760 6070.0
23.919909640 6323.0
23.941642520 6228.0
23.963375400 6385.0
23.985108280 6421.0
24.006841160 6434.0
24.028574040 6433.0
24.050306920 6416.0
24.072039800 6559.0
24.093772680 6522.0
24.115505560 6510.0
24.137238440 6594.0
24.158971320 6468.0
24.180704200 6300.0
24.202437080 6270.0
24.224169960 6241.0
24.245902840 6241.0
24.267635720 6241.0
24.289368600 6319.0
24.311101480 6302.0
24.332834360 6533.0
24.354567240 6453.0
24.376300120 6505.0
24.398033000 6359.0
24.419765880 6309.0
24.441498760 6491.0
24.463231640 6304.0
24.484964520 6108.0
24.506697400 6273.0
24.528430280 6264.0
24.550163160 6184.0
24.571896040 6123.0
24.593628920 6000.0
24.615361800 5889.0
24.637094680 6076.0
24.658827560 6049.0
24.680560440 6019.0
24.702293320 6203.0
24.724026200 6202.0
24.745759080 6081.0
24.767491960 6326.0
24.789224840 6178.0
24.810957720 6159.0
24.832690600 6079.0
24.854423480 6371.0
24.876156360 6148.0
24.897889240 6211.0
24.919622120 6110.0
24.941355000 6218.0
24.963087880 5985.0
24.984820760 6197.0
25.006553640 6064.0
25.028286520 6182.0
25.050019400 5978.0
25.071752280 5994.0
25.093485160 6070.0
25.115218040 6085.0
25.136950920 6153.0
25.158683800 6201.0
25.180416680 6060.0
25.202149560 6032.0
25.223882440 6000.0
25.245615320 6018.0
25.267348200 6030.0
25.289081080 5969.0
25.310813960 6031.0
25.332546840 5984.0
25.354279720 6235.0
25.376012600 6122.0
25.397745480 6129.0
25.419478360 6077.0
25.441211240 6051.0
25.462944120 6078.0
25.484677000 6170.0
25.506409880 6045.0
25.528142760 6309.0
25.549875640 6030.0
25.571608520 6375.0
25.593341400 6493.0
25.615074280 6475.0
25.636807160 6736.0
25.658540040 6800.0
25.680272920 6994.0
25.702005800 6923.0
25.723738680 7155.0
25.745471560 7374.0
25.767204440 7440.0
25.788937320 7574.0
25.810670200 7605.0
25.832403080 7301.0
25.854135960 7275.0
25.875868840 7054.0
25.897601720 6914.0
25.919334600 6526.0
25.941067480 6417.0
25.962800360 6321.0
25.984533240 6174.0
26.006266120 6387.0
26.027999000 6338.0
26.049731880 6368.0
26.071464760 6263.0
26.093197640 6415.0
26.114930520 6330.0
26.136663400 6504.0
26.158396280 6481.0
26.180129160 6669.0
26.201862040 6686.0
26.223594920 6781.0
26.245327800 6788.0
26.267060680 7179.0
26.288793560 7281.0
26.310526440 7520.0
26.332259320 7976.0
26.353992200 8265.0
26.375725080 8798.0
26.397457960 9309.0
26.419190840 9807.0
26.440923720 10284.0
26.462656600 10801.0
26.484389480 11099.0
26.506122360 10894.0
26.527855240 10649.0
26.549588120 9958.0
26.571321000 9147.0
26.593053880 8458.0
26.614786760 7916.0
26.636519640 7566.0
26.658252520 7321.0
26.679985400 7327.0
26.701718280 7238.0
26.723451160 7191.0
26.745184040 7102.0
26.766916920 6840.0
26.788649800 6925.0
26.810382680 6646.0
26.832115560 6538.0
26.853848440 6767.0
26.875581320 6723.0
26.897314200 6793.0
26.919047080 6896.0
26.940779960 7058.0
26.962512840 7173.0
26.984245720 7372.0
27.005978600 7518.0
27.027711480 7929.0
27.049444360 7890.0
27.071177240 8631.0
27.092910120 9258.0
27.114643000 9916.0
27.136375880 11079.0
27.158108760 11566.0
27.179841640 12723.0
27.201574520 13400.0
27.223307400 15038.0
27.245040280 15986.0
27.266773160 16300.0
27.288506040 14912.0
27.310238920 13795.0
27.331971800 12072.0
27.353704680 10453.0
27.375437560 8792.0
27.397170440 8026.0
27.418903320 7229.0
27.440636200 6829.0
27.462369080 6821.0
27.484101960 6909.0
27.505834840 6816.0
27.527567720 6683.0
27.549300600 6815.0
27.571033480 6815.0
27.592766360 6927.0
27.614499240 7031.0
27.636232120 7050.0
27.657965000 7233.0
27.679697880 7218.0
27.701430760 7414.0
27.723163640 7215.0
27.744896520 7155.0
27.766629400 6986.0
27.788362280 7015.0
27.810095160 6659.0
27.831828040 6584.0
27.853560920 6642.0
27.875293800 6638.0
27.897026680 6585.0
27.918759560 6616.0
27.940492440 6687.0
27.962225320 6748.0
27.983958200 6714.0
28.005691080 6727.0
28.027423960 6843.0
28.049156840 6876.0
28.070889720 7042.0
28.092622600 6923.0
28.114355480 7052.0
28.136088360 7061.0
28.157821240 7077.0
28.179554120 6883.0
28.201287000 6874.0
28.223019880 6921.0
28.244752760 7046.0
28.266485640 7237.0
28.288218520 7079.0
28.309951400 7169.0
28.331684280 7441.0
28.353417160 7192.0
28.375150040 7440.0
28.396882920 7386.0
28.418615800 7539.0
28.440348680 7877.0
28.462081560 8146.0
28.483814440 8351.0
28.505547320 9049.0
28.527280200 9584.0
28.549013080 10453.0
28.570745960 11584.0
28.592478840 12700.0
28.614211720 14090.0
28.635944600 15294.0
28.657677480 16116.0
28.679410360 16475.0
28.701143240 15686.0
28.722876120 14222.0
28.744609000 13448.0
28.766341880 12301.0
28.788074760 11181.0
28.809807640 10077.0
28.831540520 9616.0
28.853273400 9423.0
28.875006280 9253.0
28.896739160 9106.0
28.918472040 9101.0
28.940204920 8989.0
28.961937800 8597.0
28.983670680 8119.0
29.005403560 8003.0
29.027136440 7582.0
29.048869320 7350.0
29.070602200 7374.0
29.092335080 7064.0
29.114067960 7094.0
29.135800840 7100.0
29.157533720 7071.0
29.179266600 6972.0
29.200999480 6795.0
29.222732360 6944.0
29.244465240 6896.0
29.266198120 6853.0
29.287931000 6721.0
29.309663880 6606.0
29.331396760 6618.0
29.353129640 6784.0
29.374862520 6561.0
29.396595400 6421.0
29.418328280 6643.0
29.440061160 6532.0
29.461794040 6462.0
29.483526920 6574.0
29.505259800 6553.0
29.526992680 6625.0
29.548725560 6732.0
29.570458440 6660.0
29.592191320 6727.0
29.613924200 6914.0
29.635657080 6774.0
29.657389960 6758.0
29.679122840 6931.0
29.700855720 7046.0
29.722588600 6901.0
29.744321480 6971.0
29.766054360 7005.0
29.787787240 6810.0
29.809520120 6975.0
29.831253000 7041.0
29.852985880 7094.0
29.874718760 7055.0
29.896451640 7014.0
29.918184520 7064.0
29.939917400 6906.0
29.961650280 6956.0
29.983383160 6822.0
30.005116040 7018.0
30.026848920 7092.0
30.048581800 6949.0
30.070314680 7203.0
30.092047560 7071.0
30.113780440 7349.0
30.135513320 7273.0
30.157246200 7522.0
30.178979080 7488.0
30.200711960 7654.0
30.222444840 7919.0
30.244177720 8182.0
30.265910600 8435.0
30.287643480 8645.0
30.309376360 8704.0
30.331109240 8693.0
30.352842120 8386.0
30.374575000 8138.0
30.396307880 7902.0
30.418040760 7702.0
30.439773640 7554.0
30.461506520 7226.0
30.483239400 7334.0
30.504972280 7557.0
30.526705160 7697.0
30.548438040 7785.0
30.570170920 8000.0
30.591903800 8084.0
30.613636680 8082.0
30.635369560 8023.0
30.657102440 7892.0
30.678835320 7663.0
30.700568200 7430.0
30.722301080 7237.0
30.744033960 7150.0
30.765766840 6843.0
30.787499720 6684.0
30.809232600 6706.0
30.830965480 6831.0
30.852698360 6783.0
30.874431240 6869.0
30.896164120 6835.0
30.917897000 7049.0
30.939629880 7226.0
30.961362760 7068.0
30.983095640 7360.0
31.004828520 7419.0
31.026561400 7657.0
31.048294280 7658.0
31.070027160 7729.0
31.091760040 7806.0
31.113492920 7605.0
31.135225800 7827.0
31.156958680 7646.0
31.178691560 7800.0
31.200424440 7704.0
31.222157320 7770.0
31.243890200 7419.0
31.265623080 7361.0
31.287355960 7406.0
31.309088840 7216.0
31.330821720 7409.0
31.352554600 7376.0
31.374287480 7507.0
31.396020360 7542.0
31.417753240 7644.0
31.439486120 7650.0
31.461219000 7711.0
31.482951880 7859.0
31.504684760 8107.0
31.526417640 8406.0
31.548150520 8471.0
31.569883400 8499.0
31.591616280 8174.0
31.613349160 8068.0
31.635082040 8512.0
31.656814920 8388.0
31.678547800 8412.0
31.700280680 8552.0
31.722013560 8781.0
31.743746440 8757.0
31.765479320 8695.0
31.787212200 8737.0
31.808945080 8996.0
31.830677960 8898.0
31.852410840 8836.0
31.874143720 8715.0
31.895876600 8466.0
31.917609480 8015.0
31.939342360 7659.0
31.961075240 7573.0
31.982808120 7371.0
32.004541000 7281.0
32.026273880 7195.0
32.048006760 7012.0
32.069739640 7227.0
32.091472520 7068.0
32.113205400 7152.0
32.134938280 7170.0
32.156671160 7463.0
32.178404040 7446.0
32.200136920 7452.0
32.221869800 7842.0
32.243602680 7969.0
32.265335560 8091.0
32.287068440 8293.0
32.308801320 8339.0
32.330534200 8406.0
32.352267080 8454.0
32.373999960 8463.0
32.395732840 8639.0
32.417465720 8728.0
32.439198600 8744.0
32.460931480 8857.0
32.482664360 8992.0
32.504397240 8618.0
32.526130120 8523.0
32.547863000 8334.0
32.569595880 7942.0
32.591328760 7703.0
32.613061640 7550.0
32.634794520 7376.0
32.656527400 7270.0
32.678260280 7080.0
32.699993160 6942.0
32.721726040 6811.0
32.743458920 6755.0
32.765191800 6600.0
32.786924680 6655.0
32.808657560 6487.0
32.830390440 6595.0
32.852123320 6514.0
32.873856200 6594.0
32.895589080 6470.0
32.917321960 6510.0
32.939054840 6629.0
32.960787720 6618.0
32.982520600 6529.0
33.004253480 6674.0
33.025986360 6711.0
33.047719240 6484.0
33.069452120 6703.0
33.091185000 6707.0
33.112917880 6828.0
33.134650760 6964.0
33.156383640 6901.0
33.178116520 7020.0
33.199849400 7242.0
33.221582280 7400.0
33.243315160 7704.0
33.265048040 7860.0
33.286780920 8244.0
33.308513800 8559.0
33.330246680 9016.0
33.351979560 9267.0
33.373712440 9456.0
33.395445320 9371.0
33.417178200 8812.0
33.438911080 8413.0
33.460643960 7912.0
33.482376840 7543.0
33.504109720 7170.0
33.525842600 6858.0
33.547575480 6852.0
33.569308360 6704.0
33.591041240 6627.0
33.612774120 6644.0
33.634507000 6558.0
33.656239880 6580.0
33.677972760 6494.0
33.699705640 6501.0
33.721438520 6511.0
33.743171400 6397.0
33.764904280 6597.0
33.786637160 6425.0
33.808370040 6615.0
33.830102920 6321.0
33.851835800 6522.0
33.873568680 6432.0
33.895301560 6455.0
33.917034440 6396.0
33.938767320 6566.0
33.960500200 6381.0
33.982233080 6554.0
34.003965960 6488.0
34.025698840 6509.0
34.047431720 6379.0
34.069164600 6790.0
34.090897480 6862.0
34.112630360 6837.0
34.134363240 6771.0
34.156096120 6843.0
34.177829000 7044.0
34.199561880 6983.0
34.221294760 7102.0
34.243027640 7134.0
34.264760520 7137.0
34.286493400 7103.0
34.308226280 6991.0
34.329959160 7186.0
34.351692040 6739.0
34.373424920 6768.0
34.395157800 6638.0
34.416890680 6827.0
34.438623560 6564.0
34.460356440 6696.0
34.482089320 6578.0
34.503822200 6637.0
34.525555080 6693.0
34.547287960 6596.0
34.569020840 6795.0
34.590753720 6787.0
34.612486600 6940.0
34.634219480 7169.0
34.655952360 6972.0
34.677685240 7315.0
34.699418120 7155.0
34.721151000 7238.0
34.742883880 7126.0
34.764616760 6994.0
34.786349640 6952.0
34.808082520 6957.0
34.829815400 6952.0
34.851548280 6831.0
34.873281160 6757.0
34.895014040 6731.0
34.916746920 6690.0
34.938479800 6800.0
34.960212680 6608.0
34.981945560 6548.0
35.003678440 6695.0
35.025411320 6637.0
35.047144200 6461.0
35.068877080 6668.0
35.090609960 6529.0
35.112342840 6575.0
35.134075720 6651.0
35.155808600 6685.0
35.177541480 6776.0
35.199274360 6576.0
35.221007240 6708.0
35.242740120 6548.0
35.264473000 6686.0
35.286205880 6620.0
35.307938760 6757.0
35.329671640 6624.0
35.351404520 6730.0
35.373137400 6812.0
35.394870280 6771.0
35.416603160 6766.0
35.438336040 6967.0
35.460068920 7015.0
35.481801800 7136.0
35.503534680 7471.0
35.525267560 7610.0
35.547000440 7594.0
35.568733320 7874.0
35.590466200 8274.0
35.612199080 8607.0
35.633931960 8848.0
35.655664840 8965.0
35.677397720 8740.0
35.699130600 8583.0
35.720863480 8444.0
35.742596360 8224.0
35.764329240 8094.0
35.786062120 7698.0
35.807795000 7561.0
35.829527880 7282.0
35.851260760 7046.0
35.872993640 6944.0
35.894726520 6825.0
35.916459400 6837.0
35.938192280 6857.0
35.959925160 6786.0
35.981658040 6751.0
36.003390920 6535.0
36.025123800 6777.0
36.046856680 6474.0
36.068589560 6738.0
36.090322440 6758.0
36.112055320 6707.0
36.133788200 6663.0
36.155521080 6971.0
36.177253960 6631.0
36.198986840 6678.0
36.220719720 6729.0
36.242452600 6840.0
36.264185480 6693.0
36.285918360 6667.0
36.307651240 6783.0
36.329384120 6884.0
36.351117000 6548.0
36.372849880 6617.0
36.394582760 6549.0
36.416315640 6632.0
36.438048520 6624.0
36.459781400 6724.0
36.481514280 6679.0
36.503247160 6626.0
36.524980040 6481.0
36.546712920 6544.0
36.568445800 6633.0
36.590178680 6674.0
36.611911560 6528.0
36.633644440 6693.0
36.655377320 6423.0
36.677110200 6773.0
36.698843080 6793.0
36.720575960 6795.0
36.742308840 6790.0
36.764041720 7111.0
36.785774600 7140.0
36.807507480 7363.0
36.829240360 7727.0
36.850973240 7877.0
36.872706120 8049.0
36.894439000 8798.0
36.916171880 9036.0
36.937904760 9452.0
36.959637640 9765.0
36.981370520 9977.0
37.003103400 9643.0
37.024836280 9354.0
37.046569160 9036.0
37.068302040 8632.0
37.090034920 8423.0
37.111767800 7856.0
37.133500680 7502.0
37.155233560 7229.0
37.176966440 7122.0
37.198699320 6926.0
37.220432200 6828.0
37.242165080 6644.0
37.263897960 6813.0
37.285630840 6598.0
37.307363720 6559.0
37.329096600 6712.0
37.350829480 6529.0
37.372562360 6609.0
37.394295240 6486.0
37.416028120 6536.0
37.437761000 6485.0
37.459493880 6329.0
37.481226760 6521.0
37.502959640 6459.0
37.524692520 6537.0
37.546425400 6401.0
37.568158280 6691.0
37.589891160 6554.0
37.611624040 6618.0
37.633356920 6788.0
37.655089800 6763.0
37.676822680 6608.0
37.698555560 6680.0
37.720288440 6787.0
37.742021320 6722.0
37.763754200 6681.0
37.785487080 6717.0
37.807219960 6855.0
37.828952840 6781.0
37.850685720 6744.0
37.872418600 6788.0
37.894151480 6903.0
37.915884360 6769.0
37.937617240 6803.0
37.959350120 6777.0
37.981083000 6748.0
38.002815880 6665.0
38.024548760 6616.0
38.046281640 6747.0
38.068014520 6736.0
38.089747400 6844.0
38.111480280 6880.0
38.133213160 6870.0
38.154946040 7109.0
38.176678920 7168.0
38.198411800 7134.0
38.220144680 6986.0
38.241877560 6997.0
38.263610440 7061.0
38.285343320 6911.0
38.307076200 6728.0
38.328809080 6896.0
38.350541960 6588.0
38.372274840 6693.0
38.394007720 6536.0
38.415740600 6509.0
38.437473480 6462.0
38.459206360 6775.0
38.480939240 6515.0
38.502672120 6497.0
38.524405000 6683.0
38.546137880 6498.0
38.567870760 6618.0
38.589603640 6430.0
38.611336520 6706.0
38.633069400 6526.0
38.654802280 6677.0
38.676535160 6710.0
38.698268040 6821.0
38.720000920 6737.0
38.741733800 6773.0
38.763466680 6862.0
38.785199560 6947.0
38.806932440 6852.0
38.828665320 6981.0
38.850398200 6865.0
38.872131080 7068.0
38.893863960 7037.0
38.915596840 7209.0
38.937329720 7423.0
38.959062600 7632.0
38.980795480 7944.0
39.002528360 8265.0
39.024261240 8567.0
39.045994120 9111.0
39.067727000 9283.0
39.089459880 9878.0
39.111192760 10099.0
39.132925640 10490.0
39.154658520 10705.0
39.176391400 10725.0
39.198124280 10416.0
39.219857160 10228.0
39.241590040 9598.0
39.263322920 9174.0
39.285055800 8897.0
39.306788680 8514.0
39.328521560 8309.0
39.350254440 7735.0
39.371987320 7492.0
39.393720200 7267.0
39.415453080 7119.0
39.437185960 7173.0
39.458918840 7101.0
39.480651720 6926.0
39.502384600 6945.0
39.524117480 7040.0
39.545850360 6885.0
39.567583240 7045.0
39.589316120 7142.0
39.611049000 7178.0
39.632781880 7532.0
39.654514760 7522.0
39.676247640 7622.0
39.697980520 7602.0
39.719713400 7679.0
39.741446280 7652.0
39.763179160 7469.0
39.784912040 7333.0
39.806644920 7315.0
39.828377800 7122.0
39.850110680 6999.0
39.871843560 6863.0
39.893576440 6826.0
39.915309320 6604.0
39.937042200 6721.0
39.958775080 6541.0
39.980507960 6505.0
40.002240840 6621.0
40.023973720 6593.0
40.045706600 6590.0
40.067439480 6273.0
40.089172360 6442.0
40.110905240 6508.0
40.132638120 6643.0
40.154371000 6457.0
40.176103880 6425.0
40.197836760 6300.0
40.219569640 6516.0
40.241302520 6443.0
40.263035400 6345.0
40.284768280 6532.0
40.306501160 6567.0
40.328234040 6315.0
40.349966920 6395.0
40.371699800 6438.0
40.393432680 6356.0
40.415165560 6182.0
40.436898440 6517.0
40.458631320 6476.0
40.480364200 6382.0
40.502097080 6573.0
40.523829960 6470.0
40.545562840 6610.0
40.567295720 6447.0
40.589028600 6559.0
40.610761480 6684.0
40.632494360 6540.0
40.654227240 6453.0
40.675960120 6581.0
40.697693000 6517.0
40.719425880 6686.0
40.741158760 6753.0
40.762891640 6632.0
40.784624520 6778.0
40.806357400 6593.0
40.828090280 6529.0
40.849823160 6693.0
40.871556040 6630.0
40.893288920 6721.0
40.915021800 6659.0
40.936754680 6570.0
40.958487560 6572.0
40.980220440 6806.0
41.001953320 6797.0
41.023686200 6900.0
41.045419080 7112.0
41.067151960 6964.0
41.088884840 6972.0
41.110617720 6958.0
41.132350600 6855.0
41.154083480 6872.0
41.175816360 7169.0
41.197549240 6937.0
41.219282120 6647.0
41.241015000 6751.0
41.262747880 6736.0
41.284480760 6688.0
41.306213640 6763.0
41.327946520 6739.0
41.349679400 6877.0
41.371412280 6832.0
41.393145160 6935.0
41.414878040 6970.0
41.436610920 7081.0
41.458343800 7021.0
41.480076680 7146.0
41.501809560 7211.0
41.523542440 7171.0
41.545275320 7236.0
41.567008200 7137.0
41.588741080 7343.0
41.610473960 7587.0
41.632206840 7741.0
41.653939720 7805.0
41.675672600 8184.0
41.697405480 8290.0
41.719138360 8717.0
41.740871240 8879.0
41.762604120 9044.0
41.784337000 8975.0
41.806069880 9211.0
41.827802760 9055.0
41.849535640 8966.0
41.871268520 8633.0
41.893001400 8295.0
41.914734280 8151.0
41.936467160 7784.0
41.958200040 7585.0
41.979932920 7358.0
42.001665800 7398.0
42.023398680 7080.0
42.045131560 7225.0
42.066864440 6893.0
42.088597320 7027.0
42.110330200 6985.0
42.132063080 7183.0
42.153795960 7086.0
42.175528840 6905.0
42.197261720 6992.0
42.218994600 7193.0
42.240727480 7117.0
42.262460360 7091.0
42.284193240 7023.0
42.305926120 7154.0
42.327659000 7145.0
42.349391880 7156.0
42.371124760 7091.0
42.392857640 7150.0
42.414590520 7274.0
42.436323400 7315.0
42.458056280 7411.0
42.479789160 7553.0
42.501522040 7557.0
42.523254920 7463.0
42.544987800 7417.0
42.566720680 7714.0
42.588453560 7685.0
42.610186440 7887.0
42.631919320 7953.0
42.653652200 8020.0
42.675385080 8100.0
42.697117960 8653.0
42.718850840 8967.0
42.740583720 9315.0
42.762316600 9799.0
42.784049480 10725.0
42.805782360 11765.0
42.827515240 13076.0
42.849248120 14607.0
42.870981000 15863.0
42.892713880 16735.0
42.914446760 16216.0
42.936179640 15587.0
42.957912520 14196.0
42.979645400 13344.0
43.001378280 13020.0
43.023111160 12402.0
43.044844040 11100.0
43.066576920 10034.0
43.088309800 9315.0
43.110042680 8816.0
43.131775560 8375.0
43.153508440 8224.0
43.175241320 8204.0
43.196974200 8026.0
43.218707080 7841.0
43.240439960 7810.0
43.262172840 7879.0
43.283905720 7567.0
43.305638600 7502.0
43.327371480 7389.0
43.349104360 7397.0
43.370837240 7151.0
43.392570120 7127.0
43.414303000 7158.0
43.436035880 6960.0
43.457768760 6938.0
43.479501640 6779.0
43.501234520 7013.0
43.522967400 7008.0
43.544700280 6877.0
43.566433160 6857.0
43.588166040 6803.0
43.609898920 6753.0
43.631631800 6781.0
43.653364680 6713.0
43.675097560 6864.0
43.696830440 6710.0
43.718563320 6840.0
43.740296200 6768.0
43.762029080 6674.0
43.783761960 6617.0
43.805494840 6565.0
43.827227720 6559.0
43.848960600 6802.0
43.870693480 6604.0
43.892426360 6730.0
43.914159240 6662.0
43.935892120 6681.0
43.957625000 6768.0
43.979357880 6724.0
44.001090760 6735.0
44.022823640 6688.0
44.044556520 6781.0
44.066289400 6793.0
44.088022280 6763.0
44.109755160 6788.0
44.131488040 6742.0
44.153220920 6796.0
44.174953800 6661.0
44.196686680 6852.0
44.218419560 6922.0
44.240152440 6947.0
44.261885320 6993.0
44.283618200 6881.0
44.305351080 6922.0
44.327083960 7089.0
44.348816840 7227.0
44.370549720 7069.0
44.392282600 7121.0
44.414015480 7188.0
44.435748360 7288.0
44.457481240 7530.0
44.479214120 7653.0
44.500947000 7861.0
44.522679880 7967.0
44.544412760 8125.0
44.566145640 8323.0
44.587878520 8110.0
44.609611400 8136.0
44.631344280 8043.0
44.653077160 7932.0
44.674810040 7712.0
44.696542920 7629.0
44.718275800 7568.0
44.740008680 7482.0
44.761741560 7288.0
44.783474440 7171.0
44.805207320 7152.0
44.826940200 7231.0
44.848673080 7066.0
44.870405960 7056.0
44.892138840 7219.0
44.913871720 7131.0
44.935604600 7292.0
44.957337480 7075.0
44.979070360 7141.0
45.000803240 7305.0
45.022536120 7519.0
45.044269000 7465.0
45.066001880 7731.0
45.087734760 7777.0
45.109467640 7546.0
45.131200520 7962.0
45.152933400 8176.0
45.174666280 8708.0
45.196399160 9179.0
45.218132040 9951.0
45.239864920 11358.0
45.261597800 13426.0
45.283330680 14212.0
45.305063560 12754.0
45.326796440 10524.0
45.348529320 9604.0
45.370262200 9966.0
45.391995080 10151.0
45.413727960 10188.0
45.435460840 8985.0
45.457193720 7744.0
45.478926600 7372.0
45.500659480 7080.0
45.522392360 7117.0
45.544125240 7041.0
45.565858120 7038.0
45.587591000 6874.0
45.609323880 6816.0
45.631056760 6756.0
45.652789640 6853.0
45.674522520 6788.0
45.696255400 7028.0
45.717988280 6796.0
45.739721160 6729.0
45.761454040 6746.0
45.783186920 6851.0
45.804919800 6895.0
45.826652680 6827.0
45.848385560 7016.0
45.870118440 6781.0
45.891851320 7065.0
45.913584200 7032.0
45.935317080 6946.0
45.957049960 7048.0
45.978782840 6738.0
46.000515720 6988.0
46.022248600 6932.0
46.043981480 6851.0
46.065714360 7057.0
46.087447240 7055.0
46.109180120 7128.0
46.130913000 7227.0
46.152645880 7334.0
46.174378760 7612.0
46.196111640 7571.0
46.217844520 7996.0
46.239577400 8230.0
46.261310280 8310.0
46.283043160 8526.0
46.304776040 8611.0
46.326508920 8714.0
46.348241800 8513.0
46.369974680 8462.0
46.391707560 8249.0
46.413440440 8021.0
46.435173320 7958.0
46.456906200 7846.0
46.478639080 7545.0
46.500371960 7420.0
46.522104840 7162.0
46.543837720 7116.0
46.565570600 7049.0
46.587303480 6981.0
46.609036360 6881.0
46.630769240 6895.0
46.652502120 6750.0
46.674235000 6742.0
46.695967880 6742.0
46.717700760 6775.0
46.739433640 6775.0
46.761166520 6956.0
46.782899400 6791.0
46.804632280 6821.0
46.826365160 6834.0
46.848098040 6723.0
46.869830920 6836.0
46.891563800 6853.0
46.913296680 7040.0
46.935029560 7187.0
46.956762440 6975.0
46.978495320 7249.0
47.000228200 7259.0
47.021961080 7337.0
47.043693960 7300.0
47.065426840 7149.0
47.087159720 7178.0
47.108892600 7265.0
47.130625480 7285.0
47.152358360 7459.0
47.174091240 7109.0
47.195824120 7041.0
47.217557000 7173.0
47.239289880 6988.0
47.261022760 6960.0
47.282755640 7043.0
47.304488520 6981.0
47.326221400 6789.0
47.347954280 6948.0
47.369687160 7051.0
47.391420040 7160.0
47.413152920 7181.0
47.434885800 7139.0
47.456618680 7317.0
47.478351560 7482.0
47.500084440 7875.0
47.521817320 8159.0
47.543550200 8669.0
47.565283080 9100.0
47.587015960 10076.0
47.608748840 10444.0
47.630481720 10282.0
47.652214600 9556.0
47.673947480 9146.0
47.695680360 9110.0
47.717413240 9058.0
47.739146120 9026.0
47.760879000 8697.0
47.782611880 8551.0
47.804344760 8090.0
47.826077640 7865.0
47.847810520 7538.0
47.869543400 7491.0
47.891276280 7386.0
47.913009160 7560.0
47.934742040 7470.0
47.956474920 7440.0
47.978207800 7596.0
47.999940680 7532.0
48.021673560 7145.0
48.043406440 7265.0
48.065139320 7309.0
48.086872200 7345.0
48.108605080 7292.0
48.130337960 7158.0
48.152070840 7082.0
48.173803720 7263.0
48.195536600 6939.0
48.217269480 7015.0
48.239002360 6853.0
48.260735240 6878.0
48.282468120 6776.0
48.304201000 6973.0
48.325933880 6865.0
48.347666760 6850.0
48.369399640 6805.0
48.391132520 6753.0
48.412865400 6744.0
48.434598280 6777.0
48.456331160 6840.0
48.478064040 6733.0
48.499796920 6821.0
48.521529800 6766.0
48.543262680 6723.0
48.564995560 6932.0
48.586728440 6912.0
48.608461320 6868.0
48.630194200 6960.0
48.651927080 7050.0
48.673659960 7097.0
48.695392840 7132.0
48.717125720 7304.0
48.738858600 7316.0
48.760591480 7352.0
48.782324360 7226.0
48.804057240 7163.0
48.825790120 7302.0
48.847523000 7243.0
48.869255880 7120.0
48.890988760 7435.0
48.912721640 7273.0
48.934454520 7258.0
48.956187400 7349.0
48.977920280 7457.0
48.999653160 7531.0
49.021386040 7657.0
49.043118920 7544.0
49.064851800 7476.0
49.086584680 7606.0
49.108317560 7465.0
49.130050440 7388.0
49.151783320 7252.0
49.173516200 7120.0
49.195249080 7182.0
49.216981960 7334.0
49.238714840 7078.0
49.260447720 7096.0
49.282180600 6837.0
49.303913480 7026.0
49.325646360 7042.0
49.347379240 7181.0
49.369112120 7013.0
49.390845000 7239.0
49.412577880 7182.0
49.434310760 6918.0
49.456043640 7106.0
49.477776520 6961.0
49.499509400 7169.0
49.521242280 7059.0
49.542975160 6953.0
49.564708040 7160.0
49.586440920 7057.0
49.608173800 6941.0
49.629906680 6969.0
49.651639560 6977.0
49.673372440 7089.0
49.695105320 7246.0
49.716838200 7310.0
49.738571080 7456.0
49.760303960 7584.0
49.782036840 7684.0
49.803769720 7923.0
49.825502600 7582.0
49.847235480 7753.0
49.868968360 7745.0
49.890701240 7534.0
49.912434120 7382.0
49.934167000 7406.0
49.955899880 7315.0
49.977632760 7399.0
49.999365640 7351.0
50.021098520 7093.0
50.042831400 7114.0
50.064564280 7145.0
50.086297160 7032.0
50.108030040 7115.0
50.129762920 7126.0
50.151495800 7053.0
50.173228680 7071.0
50.194961560 7098.0
50.216694440 6959.0
50.238427320 7313.0
50.260160200 7012.0
50.281893080 7164.0
50.303625960 7156.0
50.325358840 7099.0
50.347091720 7067.0
50.368824600 7136.0
50.390557480 7184.0
50.412290360 6902.0
50.434023240 7097.0
50.455756120 6966.0
50.477489000 7062.0
50.499221880 7263.0
50.520954760 7232.0
50.542687640 7441.0
50.564420520 7443.0
50.586153400 7379.0
50.607886280 7604.0
50.629619160 7836.0
50.651352040 8252.0
50.673084920 8555.0
50.694817800 8913.0
50.716550680 9494.0
50.738283560 10022.0
50.760016440 10270.0
50.781749320 10653.0
50.803482200 10425.0
50.825215080 10037.0
50.846947960 9965.0
50.868680840 9648.0
50.890413720 9670.0
50.912146600 9418.0
50.933879480 9221.0
50.955612360 8849.0
50.977345240 8336.0
50.999078120 7962.0
51.020811000 7881.0
51.042543880 7765.0
51.064276760 7512.0
51.086009640 7409.0
51.107742520 7285.0
51.129475400 7372.0
51.151208280 7286.0
51.172941160 7317.0
51.194674040 7385.0
51.216406920 7341.0
51.238139800 7321.0
51.259872680 7049.0
51.281605560 7186.0
51.303338440 7042.0
51.325071320 7148.0
51.346804200 6876.0
51.368537080 6852.0
51.390269960 7116.0
51.412002840 7006.0
51.433735720 7176.0
51.455468600 7190.0
51.477201480 7201.0
51.498934360 7163.0
51.520667240 7242.0
51.542400120 7065.0
51.564133000 7256.0
51.585865880 6853.0
51.607598760 7053.0
51.629331640 7229.0
51.651064520 7120.0
51.672797400 7254.0
51.694530280 7276.0
51.716263160 7271.0
51.737996040 7020.0
51.759728920 6993.0
51.781461800 7050.0
51.803194680 6929.0
51.824927560 6994.0
51.846660440 6990.0
51.868393320 6937.0
51.890126200 6854.0
51.911859080 6814.0
51.933591960 6947.0
51.955324840 6850.0
51.977057720 6986.0
51.998790600 7082.0
52.020523480 6988.0
52.042256360 6915.0
52.063989240 7070.0
52.085722120 6776.0
52.107455000 6802.0
52.129187880 6774.0
52.150920760 6682.0
52.172653640 6803.0
52.194386520 6737.0
52.216119400 6772.0
52.237852280 6911.0
52.259585160 6678.0
52.281318040 6746.0
52.303050920 6875.0
52.324783800 6746.0
52.346516680 6644.0
52.368249560 6973.0
52.389982440 6875.0
52.411715320 7027.0
52.433448200 7097.0
52.455181080 7157.0
52.476913960 7198.0
52.498646840 7100.0
52.520379720 6897.0
52.542112600 7037.0
52.563845480 7022.0
52.585578360 7221.0
52.607311240 7201.0
52.629044120 7135.0
52.650777000 7223.0
52.672509880 7252.0
52.694242760 7280.0
52.715975640 7114.0
52.737708520 7037.0
52.759441400 7261.0
52.781174280 7222.0
52.802907160 7191.0
52.824640040 7443.0
52.846372920 7446.0
52.868105800 7800.0
52.889838680 7780.0
52.911571560 7912.0
52.933304440 8000.0
52.955037320 8001.0
52.976770200 7914.0
52.998503080 7979.0
53.020235960 8039.0
53.041968840 8010.0
53.063701720 8337.0
53.085434600 8246.0
53.107167480 8054.0
53.128900360 7928.0
53.150633240 7920.0
53.172366120 7844.0
53.194099000 7707.0
53.215831880 7377.0
53.237564760 7456.0
53.259297640 7203.0
53.281030520 7367.0
53.302763400 6950.0
53.324496280 7139.0
53.346229160 7220.0
53.367962040 7225.0
53.389694920 7105.0
53.411427800 7246.0
53.433160680 7104.0
53.454893560 7298.0
53.476626440 7418.0
53.498359320 7557.0
53.520092200 7565.0
53.541825080 7596.0
53.563557960 8049.0
53.585290840 8391.0
53.607023720 8733.0
53.628756600 9715.0
53.650489480 11054.0
53.672222360 12810.0
53.693955240 12794.0
53.715688120 11060.0
53.737421000 9241.0
53.759153880 8711.0
53.780886760 9142.0
53.802619640 9605.0
53.824352520 10256.0
53.846085400 9722.0
53.867818280 8608.0
53.889551160 7904.0
53.911284040 7517.0
53.933016920 7257.0
53.954749800 7443.0
53.976482680 7168.0
53.998215560 7324.0
54.019948440 7450.0
54.041681320 7411.0
54.063414200 7553.0
54.085147080 7439.0
54.106879960 7413.0
54.128612840 7782.0
54.150345720 7763.0
54.172078600 7668.0
54.193811480 7715.0
54.215544360 7771.0
54.237277240 7757.0
54.259010120 7738.0
54.280743000 7799.0
54.302475880 7888.0
54.324208760 7788.0
54.345941640 7947.0
54.367674520 8084.0
54.389407400 8203.0
54.411140280 8317.0
54.432873160 8327.0
54.454606040 8207.0
54.476338920 8560.0
54.498071800 8642.0
54.519804680 8247.0
54.541537560 8365.0
54.563270440 8046.0
54.585003320 8260.0
54.606736200 7933.0
54.628469080 7960.0
54.650201960 7961.0
54.671934840 8022.0
54.693667720 7624.0
54.715400600 7915.0
54.737133480 7835.0
54.758866360 7727.0
54.780599240 7659.0
54.802332120 7856.0
54.824065000 7741.0
54.845797880 7741.0
54.867530760 8019.0
54.889263640 8195.0
54.910996520 8040.0
54.932729400 8343.0
54.954462280 8074.0
54.976195160 7948.0
54.997928040 7832.0
55.019660920 7871.0
55.041393800 7916.0
55.063126680 7792.0
55.084859560 7837.0
55.106592440 7890.0
55.128325320 7892.0
55.150058200 7694.0
55.171791080 7583.0
55.193523960 7594.0
55.215256840 7490.0
55.236989720 7403.0
55.258722600 7427.0
55.280455480 7411.0
55.302188360 7318.0
55.323921240 7574.0
55.345654120 7376.0
55.367387000 7240.0
55.389119880 7319.0
55.410852760 7396.0
55.432585640 7374.0
55.454318520 7510.0
55.476051400 7450.0
55.497784280 7388.0
55.519517160 7688.0
55.541250040 7668.0
55.562982920 7590.0
55.584715800 7646.0
55.606448680 7701.0
55.628181560 7742.0
55.649914440 8037.0
55.671647320 8346.0
55.693380200 8364.0
55.715113080 8334.0
55.736845960 8431.0
55.758578840 8227.0
55.780311720 8094.0
55.802044600 7891.0
55.823777480 7940.0
55.845510360 7711.0
55.867243240 7710.0
55.888976120 7562.0
55.910709000 7542.0
55.932441880 7642.0
55.954174760 7265.0
55.975907640 7123.0
55.997640520 7193.0
56.019373400 7317.0
56.041106280 7371.0
56.062839160 7119.0
56.084572040 7157.0
56.106304920 6990.0
56.128037800 6893.0
56.149770680 7009.0
56.171503560 7145.0
56.193236440 7022.0
56.214969320 6941.0
56.236702200 6835.0
56.258435080 6840.0
56.280167960 6722.0
56.301900840 6680.0
56.323633720 6758.0
56.345366600 6706.0
56.367099480 6791.0
56.388832360 6823.0
56.410565240 6743.0
56.432298120 6855.0
56.454031000 6670.0
56.475763880 6727.0
56.497496760 6924.0
56.519229640 6919.0
56.540962520 6856.0
56.562695400 6618.0
56.584428280 6890.0
56.606161160 6997.0
56.627894040 6997.0
56.649626920 7104.0
56.671359800 7051.0
56.693092680 7000.0
56.714825560 6951.0
56.736558440 7238.0
56.758291320 7275.0
56.780024200 7327.0
56.801757080 7386.0
56.823489960 7456.0
56.845222840 7463.0
56.866955720 7437.0
56.888688600 7379.0
56.910421480 7162.0
56.932154360 7107.0
56.953887240 7233.0
56.975620120 7170.0
56.997353000 7052.0
57.019085880 7091.0
57.040818760 7000.0
57.062551640 7074.0
57.084284520 6936.0
57.106017400 7019.0
57.127750280 7032.0
57.149483160 6827.0
57.171216040 7056.0
57.192948920 6930.0
57.214681800 6880.0
57.236414680 6857.0
57.258147560 7154.0
57.279880440 7133.0
57.301613320 6976.0
57.323346200 7148.0
57.345079080 7195.0
57.366811960 7109.0
57.388544840 6933.0
57.410277720 7211.0
57.432010600 7167.0
57.453743480 6947.0
57.475476360 7184.0
57.497209240 6907.0
57.518942120 7070.0
57.540675000 6936.0
57.562407880 6916.0
57.584140760 6841.0
57.605873640 6967.0
57.627606520 6883.0
57.649339400 6829.0
57.671072280 7024.0
57.692805160 6834.0
57.714538040 7020.0
57.736270920 6887.0
57.758003800 7007.0
57.779736680 7039.0
57.801469560 7008.0
57.823202440 7058.0
57.844935320 7038.0
57.866668200 7195.0
57.888401080 7499.0
57.910133960 7326.0
57.931866840 7507.0
57.953599720 7271.0
57.975332600 7432.0
57.997065480 7529.0
58.018798360 7562.0
58.040531240 7574.0
58.062264120 7510.0
58.083997000 7361.0
58.105729880 7462.0
58.127462760 7572.0
58.149195640 7719.0
58.170928520 7914.0
58.192661400 7837.0
58.214394280 7748.0
58.236127160 7686.0
58.257860040 7561.0
58.279592920 7519.0
58.301325800 7500.0
58.323058680 7533.0
58.344791560 7416.0
58.366524440 7559.0
58.388257320 7582.0
58.409990200 7509.0
58.431723080 7711.0
58.453455960 7778.0
58.475188840 7718.0
58.496921720 7867.0
58.518654600 7900.0
58.540387480 7983.0
58.562120360 8045.0
58.583853240 7698.0
58.605586120 7911.0
58.627319000 7775.0
58.649051880 7650.0
58.670784760 7838.0
58.692517640 7648.0
58.714250520 7700.0
58.735983400 7608.0
58.757716280 7713.0
58.779449160 7762.0
58.801182040 7951.0
58.822914920 8300.0
58.844647800 8685.0
58.866380680 9252.0
58.888113560 9959.0
58.909846440 10874.0
58.931579320 11870.0
58.953312200 13039.0
58.975045080 13293.0
58.996777960 13275.0
59.018510840 12314.0
59.040243720 11457.0
59.061976600 10844.0
59.083709480 10475.0
59.105442360 10974.0
59.127175240 10688.0
59.148908120 10543.0
59.170641000 9936.0
59.192373880 9208.0
59.214106760 8505.0
59.235839640 8122.0
59.257572520 7926.0
59.279305400 7672.0
59.301038280 7608.0
59.322771160 7479.0
59.344504040 7418.0
59.366236920 7435.0
59.387969800 7308.0
59.409702680 7231.0
59.431435560 7075.0
59.453168440 7123.0
59.474901320 7124.0
59.496634200 7017.0
59.518367080 6877.0
59.540099960 6941.0
59.561832840 6838.0
59.583565720 6749.0
59.605298600 6812.0
59.627031480 6597.0
59.648764360 6701.0
59.670497240 6552.0
59.692230120 6699.0
59.713963000 6660.0
59.735695880 6582.0
59.757428760 6563.0
59.779161640 6647.0
59.800894520 6625.0
59.822627400 6578.0
59.844360280 6693.0
59.866093160 6671.0
59.887826040 6700.0
59.909558920 6455.0
59.931291800 6536.0
59.953024680 6671.0
59.974757560 6615.0
59.996490440 6525.0
60.018223320 6545.0
60.039956200 6718.0
60.061689080 6684.0
60.083421960 6738.0
60.105154840 6658.0
60.126887720 6698.0
60.148620600 6754.0
60.170353480 6787.0
60.192086360 6775.0
60.213819240 6787.0
60.235552120 6680.0
60.257285000 6641.0
60.279017880 6647.0
60.300750760 6539.0
60.322483640 6686.0
60.344216520 6670.0
60.365949400 6633.0
60.387682280 6639.0
60.409415160 6573.0
60.431148040 6682.0
60.452880920 6547.0
60.474613800 6536.0
60.496346680 6662.0
60.518079560 6702.0
60.539812440 6607.0
60.561545320 6684.0
60.583278200 6684.0
60.605011080 6645.0
60.626743960 6611.0
60.648476840 6854.0
60.670209720 6747.0
60.691942600 6348.0
60.713675480 6510.0
60.735408360 6621.0
60.757141240 6642.0
60.778874120 6474.0
60.800607000 6461.0
60.822339880 6707.0
60.844072760 6630.0
60.865805640 6751.0
60.887538520 6547.0
60.909271400 6616.0
60.931004280 6540.0
60.952737160 6519.0
60.974470040 6775.0
60.996202920 6787.0
61.017935800 6652.0
61.039668680 6910.0
61.061401560 6739.0
61.083134440 6883.0
61.104867320 6809.0
61.126600200 6791.0
61.148333080 6979.0
61.170065960 6799.0
61.191798840 6714.0
61.213531720 6701.0
61.235264600 6706.0
61.256997480 6598.0
61.278730360 6688.0
61.300463240 6815.0
61.322196120 6719.0
61.343929000 6695.0
61.365661880 6711.0
61.387394760 6551.0
61.409127640 6593.0
61.430860520 6559.0
61.452593400 6536.0
61.474326280 6635.0
61.496059160 6477.0
61.517792040 6449.0
61.539524920 6468.0
61.561257800 6495.0
61.582990680 6533.0
61.604723560 6490.0
61.626456440 6607.0
61.648189320 6506.0
61.669922200 6477.0
61.691655080 6500.0
61.713387960 6355.0
61.735120840 6447.0
61.756853720 6433.0
61.778586600 6479.0
61.800319480 6562.0
61.822052360 6496.0
61.843785240 6586.0
61.865518120 6686.0
61.887251000 6561.0
61.908983880 6490.0
61.930716760 6531.0
61.952449640 6736.0
61.974182520 6560.0
61.995915400 6785.0
62.017648280 6638.0
62.039381160 6602.0
62.061114040 6628.0
62.082846920 6672.0
62.104579800 6661.0
62.126312680 6606.0
62.148045560 6558.0
62.169778440 6673.0
62.191511320 6490.0
62.213244200 6659.0
62.234977080 6505.0
62.256709960 6665.0
62.278442840 6772.0
62.300175720 6584.0
62.321908600 6666.0
62.343641480 6729.0
62.365374360 6780.0
62.387107240 6677.0
62.408840120 6776.0
62.430573000 7092.0
62.452305880 6905.0
62.474038760 7010.0
62.495771640 6836.0
62.517504520 6709.0
62.539237400 6837.0
62.560970280 6890.0
62.582703160 6943.0
62.604436040 6957.0
62.626168920 6846.0
62.647901800 6802.0
62.669634680 6929.0
62.691367560 6871.0
62.713100440 6821.0
62.734833320 6960.0
62.756566200 6679.0
62.778299080 6751.0
62.800031960 6796.0
62.821764840 6814.0
62.843497720 6897.0
62.865230600 6616.0
62.886963480 6588.0
62.908696360 6736.0
62.930429240 6716.0
62.952162120 6635.0
62.973895000 6582.0
62.995627880 6839.0
63.017360760 6615.0
63.039093640 6552.0
63.060826520 6546.0
63.082559400 6671.0
63.104292280 6611.0
63.126025160 6780.0
63.147758040 6794.0
63.169490920 6857.0
63.191223800 6823.0
63.212956680 6884.0
63.234689560 6684.0
63.256422440 6724.0
63.278155320 6794.0
63.299888200 6731.0
63.321621080 6736.0
63.343353960 6567.0
63.365086840 6585.0
63.386819720 6768.0
63.408552600 6660.0
63.430285480 6507.0
63.452018360 6692.0
63.473751240 6748.0
63.495484120 6768.0
63.517217000 6802.0
63.538949880 6809.0
63.560682760 6774.0
63.582415640 6619.0
63.604148520 6765.0
63.625881400 6655.0
63.647614280 6703.0
63.669347160 6787.0
63.691080040 6815.0
63.712812920 6581.0
63.734545800 6767.0
63.756278680 6820.0
63.778011560 6806.0
63.799744440 6719.0
63.821477320 6569.0
63.843210200 6713.0
63.864943080 6765.0
63.886675960 6708.0
63.908408840 6689.0
63.930141720 6718.0
63.951874600 6648.0
63.973607480 6668.0
63.995340360 6600.0
64.017073240 6548.0
64.038806120 6571.0
64.060539000 6842.0
64.082271880 6780.0
64.104004760 6667.0
64.125737640 6752.0
64.147470520 6533.0
64.169203400 6577.0
64.190936280 6512.0
64.212669160 6433.0
64.234402040 6482.0
64.256134920 6490.0
64.277867800 6330.0
64.299600680 6606.0
64.321333560 6472.0
64.343066440 6467.0
64.364799320 6390.0
64.386532200 6544.0
64.408265080 6490.0
64.429997960 6486.0
64.451730840 6558.0
64.473463720 6553.0
64.495196600 6604.0
64.516929480 6546.0
64.538662360 6673.0
64.560395240 6713.0
64.582128120 6604.0
64.603861000 6632.0
64.625593880 6520.0
64.647326760 6486.0
64.669059640 6743.0
64.690792520 6508.0
64.712525400 6512.0
64.734258280 6616.0
64.755991160 6458.0
64.777724040 6516.0
64.799456920 6549.0
64.821189800 6584.0
64.842922680 6568.0
64.864655560 6660.0
64.886388440 6696.0
64.908121320 6607.0
64.929854200 6497.0
64.951587080 6591.0
64.973319960 6701.0
64.995052840 6681.0
65.016785720 6603.0
65.038518600 6742.0
65.060251480 6766.0
65.081984360 6722.0
65.103717240 6895.0
65.125450120 7027.0
65.147183000 6947.0
65.168915880 6787.0
65.190648760 6913.0
65.212381640 6796.0
65.234114520 6979.0
65.255847400 7119.0
65.277580280 7154.0
65.299313160 7433.0
65.321046040 7474.0
65.342778920 7505.0
65.364511800 7561.0
65.386244680 7801.0
65.407977560 7874.0
65.429710440 7677.0
65.451443320 7643.0
65.473176200 7381.0
65.494909080 7352.0
65.516641960 7226.0
65.538374840 7277.0
65.560107720 7279.0
65.581840600 7337.0
65.603573480 7301.0
65.625306360 7279.0
65.647039240 7215.0
65.668772120 7149.0
65.690505000 6858.0
65.712237880 6963.0
65.733970760 6911.0
65.755703640 6953.0
65.777436520 6839.0
65.799169400 6800.0
65.820902280 6825.0
65.842635160 6806.0
65.864368040 7023.0
65.886100920 7060.0
65.907833800 7078.0
65.929566680 7376.0
65.951299560 7932.0
65.973032440 8359.0
65.994765320 7825.0
66.016498200 7276.0
66.038231080 6862.0
66.059963960 6988.0
66.081696840 6759.0
66.103429720 6877.0
66.125162600 7305.0
66.146895480 7557.0
66.168628360 7805.0
66.190361240 7271.0
66.212094120 7045.0
66.233827000 7137.0
66.255559880 6939.0
66.277292760 6878.0
66.299025640 6854.0
66.320758520 6755.0
66.342491400 6843.0
66.364224280 6799.0
66.385957160 6877.0
66.407690040 6898.0
66.429422920 6597.0
66.451155800 6930.0
66.472888680 6635.0
66.494621560 6606.0
66.516354440 6627.0
66.538087320 6722.0
66.559820200 6550.0
66.581553080 6439.0
66.603285960 6610.0
66.625018840 6500.0
66.646751720 6477.0
66.668484600 6570.0
66.690217480 6429.0
66.711950360 6453.0
66.733683240 6486.0
66.755416120 6385.0
66.777149000 6298.0
66.798881880 6482.0
66.820614760 6730.0
66.842347640 6541.0
66.864080520 6432.0
66.885813400 6410.0
66.907546280 6327.0
66.929279160 6414.0
66.951012040 6487.0
66.972744920 6283.0
66.994477800 6526.0
67.016210680 6416.0
67.037943560 6457.0
67.059676440 6458.0
67.081409320 6362.0
67.103142200 6596.0
67.124875080 6396.0
67.146607960 6559.0
67.168340840 6308.0
67.190073720 6611.0
67.211806600 6563.0
67.233539480 6412.0
67.255272360 6721.0
67.277005240 6458.0
67.298738120 6690.0
67.320471000 6601.0
67.342203880 6688.0
67.363936760 6569.0
67.385669640 6666.0
67.407402520 6719.0
67.429135400 6836.0
67.450868280 6693.0
67.472601160 6722.0
67.494334040 6774.0
67.516066920 6744.0
67.537799800 7016.0
67.559532680 6801.0
67.581265560 6835.0
67.602998440 6740.0
67.624731320 6676.0
67.646464200 6830.0
67.668197080 6752.0
67.689929960 6636.0
67.711662840 6696.0
67.733395720 6647.0
67.755128600 6555.0
67.776861480 6594.0
67.798594360 6624.0
67.820327240 6538.0
67.842060120 6357.0
67.863793000 6413.0
67.885525880 6363.0
67.907258760 6456.0
67.928991640 6376.0
67.950724520 6378.0
67.972457400 6472.0
67.994190280 6512.0
68.015923160 6563.0
68.037656040 6562.0
68.059388920 6458.0
68.081121800 6405.0
68.102854680 6531.0
68.124587560 6477.0
68.146320440 6629.0
68.168053320 6540.0
68.189786200 6555.0
68.211519080 6503.0
68.233251960 6476.0
68.254984840 6670.0
68.276717720 6476.0
68.298450600 6520.0
68.320183480 6509.0
68.341916360 6383.0
68.363649240 6525.0
68.385382120 6605.0
68.407115000 6386.0
68.428847880 6578.0
68.450580760 6367.0
68.472313640 6353.0
68.494046520 6338.0
68.515779400 6337.0
68.537512280 6187.0
68.559245160 6358.0
68.580978040 6365.0
68.602710920 6529.0
68.624443800 6458.0
68.646176680 6418.0
68.667909560 6169.0
68.689642440 6072.0
68.711375320 6387.0
68.733108200 6327.0
68.754841080 6278.0
68.776573960 6334.0
68.798306840 6359.0
68.820039720 6395.0
68.841772600 6387.0
68.863505480 6331.0
68.885238360 6282.0
68.906971240 6311.0
68.928704120 6247.0
68.950437000 6425.0
68.972169880 6442.0
68.993902760 6318.0
69.015635640 6177.0
69.037368520 6371.0
69.059101400 6458.0
69.080834280 6176.0
69.102567160 6314.0
69.124300040 6280.0
69.146032920 6205.0
69.167765800 6307.0
69.189498680 6161.0
69.211231560 6287.0
69.232964440 6129.0
69.254697320 6259.0
69.276430200 6157.0
69.298163080 6407.0
69.319895960 6182.0
69.341628840 6210.0
69.363361720 6343.0
69.385094600 6194.0
69.406827480 6218.0
69.428560360 6236.0
69.450293240 6074.0
69.472026120 6123.0
69.493759000 6218.0
69.515491880 6185.0
69.537224760 6181.0
69.558957640 6249.0
69.580690520 6191.0
69.602423400 6421.0
69.624156280 6376.0
69.645889160 6275.0
69.667622040 6228.0
69.689354920 6295.0
69.711087800 6053.0
69.732820680 6248.0
69.754553560 6199.0
69.776286440 5983.0
69.798019320 6263.0
69.819752200 6215.0
69.841485080 6141.0
69.863217960 6183.0
69.884950840 6031.0
69.906683720 6215.0
69.928416600 6225.0
69.950149480 6243.0
69.971882360 6124.0
69.993615240 6217.0
70.015348120 6382.0
70.037081000 6363.0
70.058813880 6169.0
70.080546760 6184.0
70.102279640 6081.0
70.124012520 6198.0
70.145745400 6379.0
70.167478280 6192.0
70.189211160 6146.0
70.210944040 6241.0
70.232676920 6113.0
70.254409800 6267.0
70.276142680 6335.0
70.297875560 6243.0
70.319608440 6226.0
70.341341320 6167.0
70.363074200 6165.0
70.384807080 6103.0
70.406539960 6111.0
70.428272840 6198.0
70.450005720 6178.0
70.471738600 6158.0
70.493471480 6181.0
70.515204360 6210.0
70.536937240 6210.0
70.558670120 6246.0
70.580403000 6334.0
70.602135880 6383.0
70.623868760 6463.0
70.645601640 6332.0
70.667334520 6193.0
70.689067400 6306.0
70.710800280 6456.0
70.732533160 6303.0
70.754266040 6298.0
70.775998920 6230.0
70.797731800 6285.0
70.819464680 6193.0
70.841197560 6227.0
70.862930440 6207.0
70.884663320 6336.0
70.906396200 6242.0
70.928129080 6169.0
70.949861960 6223.0
70.971594840 6185.0
70.993327720 6162.0
71.015060600 6217.0
71.036793480 6351.0
71.058526360 6375.0
71.080259240 6211.0
71.101992120 6328.0
71.123725000 6251.0
71.145457880 6284.0
71.167190760 6184.0
71.188923640 6278.0
71.210656520 6243.0
71.232389400 6155.0
71.254122280 6296.0
71.275855160 6166.0
71.297588040 6340.0
71.319320920 6349.0
71.341053800 6172.0
71.362786680 6224.0
71.384519560 6336.0
71.406252440 6360.0
71.427985320 6208.0
71.449718200 6296.0
71.471451080 6087.0
71.493183960 6207.0
71.514916840 6212.0
71.536649720 6048.0
71.558382600 6155.0
71.580115480 6210.0
71.601848360 6369.0
71.623581240 6390.0
71.645314120 6231.0
71.667047000 6369.0
71.688779880 6309.0
71.710512760 6155.0
71.732245640 6405.0
71.753978520 6217.0
71.775711400 6158.0
71.797444280 6322.0
71.819177160 6141.0
71.840910040 6252.0
71.862642920 6377.0
71.884375800 6402.0
71.906108680 6128.0
71.927841560 6462.0
71.949574440 6316.0
71.971307320 6497.0
71.993040200 6455.0
72.014773080 6494.0
72.036505960 6678.0
72.058238840 6617.0
72.079971720 6605.0
72.101704600 6555.0
72.123437480 6702.0
72.145170360 6506.0
72.166903240 6576.0
72.188636120 6596.0
72.210369000 6490.0
72.232101880 6651.0
72.253834760 6632.0
72.275567640 6563.0
72.297300520 6607.0
72.319033400 6504.0
72.340766280 6635.0
72.362499160 6498.0
72.384232040 6638.0
72.405964920 6509.0
72.427697800 6478.0
72.449430680 6444.0
72.471163560 6576.0
72.492896440 6460.0
72.514629320 6461.0
72.536362200 6390.0
72.558095080 6316.0
72.579827960 6217.0
72.601560840 6335.0
72.623293720 6323.0
72.645026600 6434.0
72.666759480 6439.0
72.688492360 6406.0
72.710225240 6678.0
72.731958120 6775.0
72.753691000 7491.0
72.775423880 8017.0
72.797156760 8198.0
72.818889640 7963.0
72.840622520 6917.0
72.862355400 6686.0
72.884088280 6453.0
72.905821160 6405.0
72.927554040 6291.0
72.949286920 6649.0
72.971019800 6760.0
72.992752680 7139.0
73.014485560 7130.0
73.036218440 6864.0
73.057951320 6409.0
73.079684200 6312.0
73.101417080 6317.0
73.123149960 6058.0
73.144882840 6091.0
73.166615720 6107.0
73.188348600 6099.0
73.210081480 6081.0
73.231814360 6093.0
73.253547240 5997.0
73.275280120 5974.0
73.297013000 6021.0
73.318745880 6026.0
73.340478760 5983.0
73.362211640 6099.0
73.383944520 6187.0
73.405677400 6134.0
73.427410280 6070.0
73.449143160 6130.0
73.470876040 6196.0
73.492608920 6300.0
73.514341800 6100.0
73.536074680 6146.0
73.557807560 6140.0
73.579540440 6177.0
73.601273320 6247.0
73.623006200 6149.0
73.644739080 6217.0
73.666471960 6205.0
73.688204840 6054.0
73.709937720 6235.0
73.731670600 6114.0
73.753403480 6160.0
73.775136360 6291.0
73.796869240 6187.0
73.818602120 6173.0
73.840335000 6050.0
73.862067880 6036.0
73.883800760 6118.0
73.905533640 6265.0
73.927266520 6097.0
73.948999400 6099.0
73.970732280 6166.0
73.992465160 6188.0
74.014198040 6107.0
74.035930920 6121.0
74.057663800 6170.0
74.079396680 6115.0
74.101129560 6216.0
74.122862440 6184.0
74.144595320 6116.0
74.166328200 6349.0
74.188061080 6190.0
74.209793960 6189.0
74.231526840 6225.0
74.253259720 6075.0
74.274992600 6117.0
74.296725480 6282.0
74.318458360 6110.0
74.340191240 6194.0
74.361924120 6109.0
74.383657000 6144.0
74.405389880 6128.0
74.427122760 6279.0
74.448855640 6217.0
74.470588520 6100.0
74.492321400 6045.0
74.514054280 6065.0
74.535787160 6185.0
74.557520040 6023.0
74.579252920 6139.0
74.600985800 6139.0
74.622718680 6098.0
74.644451560 6200.0
74.666184440 6193.0
74.687917320 6073.0
74.709650200 6241.0
74.731383080 6076.0
74.753115960 6144.0
74.774848840 6186.0
74.796581720 6118.0
74.818314600 6193.0
74.840047480 6221.0
74.861780360 6026.0
74.883513240 6091.0
74.905246120 5979.0
74.926979000 6102.0
74.948711880 6033.0
74.970444760 6155.0
74.992177640 6149.0
75.013910520 6201.0
75.035643400 6111.0
75.057376280 6060.0
75.079109160 6007.0
75.100842040 6013.0
75.122574920 6114.0
75.144307800 6062.0
75.166040680 5976.0
75.187773560 6071.0
75.209506440 5930.0
75.231239320 5981.0
75.252972200 6092.0
75.274705080 5987.0
75.296437960 6014.0
75.318170840 6153.0
75.339903720 6085.0
75.361636600 6040.0
75.383369480 6218.0
75.405102360 6016.0
75.426835240 5925.0
75.448568120 6057.0
75.470301000 6077.0
75.492033880 6091.0
75.513766760 5924.0
75.535499640 6030.0
75.557232520 6162.0
75.578965400 6030.0
75.600698280 5943.0
75.622431160 5947.0
75.644164040 5879.0
75.665896920 5966.0
75.687629800 5937.0
75.709362680 6082.0
75.731095560 5949.0
75.752828440 6037.0
75.774561320 6066.0
75.796294200 6057.0
75.818027080 5902.0
75.839759960 5969.0
75.861492840 6009.0
75.883225720 6184.0
75.904958600 5967.0
75.926691480 6086.0
75.948424360 5958.0
75.970157240 6112.0
75.991890120 6183.0
76.013623000 6089.0
76.035355880 6132.0
76.057088760 5975.0
76.078821640 6151.0
76.100554520 6002.0
76.122287400 6092.0
76.144020280 6123.0
76.165753160 6030.0
76.187486040 6287.0
76.209218920 6119.0
76.230951800 6123.0
76.252684680 6190.0
76.274417560 6068.0
76.296150440 6001.0
76.317883320 6198.0
76.339616200 6166.0
76.361349080 5938.0
76.383081960 6182.0
76.404814840 6120.0
76.426547720 5981.0
76.448280600 5895.0
76.470013480 6004.0
76.491746360 6222.0
76.513479240 6141.0
76.535212120 6080.0
76.556945000 5983.0
76.578677880 6087.0
76.600410760 6175.0
76.622143640 6048.0
76.643876520 6090.0
76.665609400 6325.0
76.687342280 6273.0
76.709075160 6152.0
76.730808040 6225.0
76.752540920 6221.0
76.774273800 6158.0
76.796006680 6316.0
76.817739560 6448.0
76.839472440 6301.0
76.861205320 6689.0
76.882938200 6787.0
76.904671080 7025.0
76.926403960 7243.0
76.948136840 7273.0
76.969869720 7304.0
76.991602600 7149.0
77.013335480 6777.0
77.035068360 6601.0
77.056801240 6710.0
77.078534120 6649.0
77.100267000 6473.0
77.121999880 6632.0
77.143732760 6518.0
77.165465640 6640.0
77.187198520 6731.0
77.208931400 6637.0
77.230664280 6583.0
77.252397160 6471.0
77.274130040 6279.0
77.295862920 6311.0
77.317595800 6281.0
77.339328680 6134.0
77.361061560 6215.0
77.382794440 6269.0
77.404527320 6171.0
77.426260200 6089.0
77.447993080 6168.0
77.469725960 6304.0
77.491458840 6034.0
77.513191720 6228.0
77.534924600 6080.0
77.556657480 6091.0
77.578390360 6087.0
77.600123240 6213.0
77.621856120 6134.0
77.643589000 5989.0
77.665321880 5990.0
77.687054760 5931.0
77.708787640 6048.0
77.730520520 5925.0
77.752253400 6037.0
77.773986280 6088.0
77.795719160 6040.0
77.817452040 6014.0
77.839184920 6067.0
77.860917800 5981.0
77.882650680 5974.0
77.904383560 5842.0
77.926116440 5995.0
77.947849320 5955.0
77.969582200 5971.0
77.991315080 5871.0
78.013047960 5933.0
78.034780840 5996.0
78.056513720 5864.0
78.078246600 5927.0
78.099979480 6014.0
78.121712360 5986.0
78.143445240 5844.0
78.165178120 5803.0
78.186911000 5950.0
78.208643880 5999.0
78.230376760 5809.0
78.252109640 6123.0
78.273842520 5923.0
78.295575400 6106.0
78.317308280 5885.0
78.339041160 6000.0
78.360774040 5921.0
78.382506920 5906.0
78.404239800 5937.0
78.425972680 5827.0
78.447705560 5927.0
78.469438440 5919.0
78.491171320 5958.0
78.512904200 5821.0
78.534637080 6048.0
78.556369960 5810.0
78.578102840 5994.0
78.599835720 5929.0
78.621568600 5899.0
78.643301480 5991.0
78.665034360 6119.0
78.686767240 6217.0
78.708500120 6100.0
78.730233000 5980.0
78.751965880 5836.0
78.773698760 6004.0
78.795431640 6006.0
78.817164520 6060.0
78.838897400 6046.0
78.860630280 5879.0
78.882363160 5967.0
78.904096040 5957.0
78.925828920 5870.0
78.947561800 6067.0
78.969294680 5989.0
78.991027560 5975.0
79.012760440 5933.0
79.034493320 6012.0
79.056226200 5947.0
79.077959080 6046.0
79.099691960 5801.0
79.121424840 5947.0
79.143157720 5954.0
79.164890600 5855.0
79.186623480 5975.0
79.208356360 5813.0
79.230089240 5864.0
79.251822120 5964.0
79.273555000 5919.0
79.295287880 5972.0
79.317020760 5851.0
79.338753640 5955.0
79.360486520 5865.0
79.382219400 5952.0
79.403952280 6021.0
79.425685160 5775.0
79.447418040 5859.0
79.469150920 6011.0
79.490883800 5884.0
79.512616680 5997.0
79.534349560 5883.0
79.556082440 5908.0
79.577815320 6023.0
79.599548200 6019.0
79.621281080 5991.0
79.643013960 5839.0
79.664746840 5905.0
79.686479720 5832.0
79.708212600 6070.0
79.729945480 6079.0
79.751678360 5886.0
79.773411240 5797.0
79.795144120 5917.0
79.816877000 5896.0
79.838609880 5849.0
79.860342760 5857.0
79.882075640 5759.0
79.903808520 5793.0
79.925541400 5912.0
79.947274280 5888.0
79.969007160 5812.0
79.990740040 5912.0
80.012472920 5833.0
80.034205800 5836.0
80.055938680 5956.0
80.077671560 5797.0
80.099404440 5870.0
80.121137320 5976.0
80.142870200 5908.0
80.164603080 5990.0
80.186335960 5915.0
80.208068840 5789.0
80.229801720 6012.0
80.251534600 5759.0
80.273267480 5994.0
80.295000360 6001.0
80.316733240 5982.0
80.338466120 5906.0
80.360199000 5954.0
80.381931880 5939.0
80.403664760 6038.0
80.425397640 6038.0
80.447130520 5938.0
80.468863400 5904.0
80.490596280 5964.0
80.512329160 5983.0
80.534062040 5829.0
80.555794920 5919.0
80.577527800 5837.0
80.599260680 5949.0
80.620993560 5931.0
80.642726440 6012.0
80.664459320 6006.0
80.686192200 5938.0
80.707925080 5978.0
80.729657960 6027.0
80.751390840 5916.0
80.773123720 5962.0
80.794856600 5871.0
80.816589480 6027.0
80.838322360 5922.0
80.860055240 6011.0
80.881788120 5878.0
80.903521000 6023.0
80.925253880 5793.0
80.946986760 5886.0
80.968719640 5986.0
80.990452520 5888.0
81.012185400 6033.0
81.033918280 5804.0
81.055651160 5951.0
81.077384040 5947.0
81.099116920 5934.0
81.120849800 5931.0
81.142582680 6067.0
81.164315560 5969.0
81.186048440 6096.0
81.207781320 5932.0
81.229514200 6102.0
81.251247080 6140.0
81.272979960 6093.0
81.294712840 5949.0
81.316445720 6058.0
81.338178600 5914.0
81.359911480 5941.0
81.381644360 5848.0
81.403377240 5902.0
81.425110120 5956.0
81.446843000 5949.0
81.468575880 6091.0
81.490308760 5863.0
81.512041640 5873.0
81.533774520 5850.0
81.555507400 5904.0
81.577240280 5853.0
81.598973160 6001.0
81.620706040 5908.0
81.642438920 5820.0
81.664171800 5880.0
81.685904680 5736.0
81.707637560 5852.0
81.729370440 5844.0
81.751103320 5688.0
81.772836200 5960.0
81.794569080 5990.0
81.816301960 5788.0
81.838034840 5774.0
81.859767720 5833.0
81.881500600 5713.0
81.903233480 5717.0
81.924966360 5883.0
81.946699240 5884.0
81.968432120 5682.0
81.990165000 5708.0
82.011897880 5871.0
82.033630760 5805.0
82.055363640 5754.0
82.077096520 5827.0
82.098829400 5722.0
82.120562280 5748.0
82.142295160 5780.0
82.164028040 5693.0
82.185760920 5728.0
82.207493800 5788.0
82.229226680 5809.0
82.250959560 5831.0
82.272692440 5749.0
82.294425320 5962.0
82.316158200 5784.0
82.337891080 5629.0
82.359623960 5743.0
82.381356840 5668.0
82.403089720 5855.0
82.424822600 5937.0
82.446555480 5831.0
82.468288360 5861.0
82.490021240 5864.0
82.511754120 5890.0
82.533487000 5927.0
82.555219880 5894.0
82.576952760 6148.0
82.598685640 5818.0
82.620418520 5934.0
82.642151400 5925.0
82.663884280 5989.0
82.685617160 5786.0
82.707350040 5880.0
82.729082920 5810.0
82.750815800 5815.0
82.772548680 5874.0
82.794281560 5817.0
82.816014440 5899.0
82.837747320 5764.0
82.859480200 5969.0
82.881213080 5653.0
82.902945960 5660.0
82.924678840 5867.0
82.946411720 5752.0
82.968144600 5749.0
82.989877480 5785.0
83.011610360 5874.0
83.033343240 5848.0
83.055076120 5773.0
83.076809000 5696.0
83.098541880 5885.0
83.120274760 5780.0
83.142007640 5903.0
83.163740520 5719.0
83.185473400 5819.0
83.207206280 5878.0
83.228939160 5765.0
83.250672040 5818.0
83.272404920 5797.0
83.294137800 5853.0
83.315870680 5838.0
83.337603560 5724.0
83.359336440 5821.0
83.381069320 5803.0
83.402802200 5852.0
83.424535080 5914.0
83.446267960 6004.0
83.468000840 5977.0
83.489733720 5869.0
83.511466600 5992.0
83.533199480 5990.0
83.554932360 6109.0
83.576665240 6279.0
83.598398120 6583.0
83.620131000 6852.0
83.641863880 7081.0
83.663596760 7440.0
83.685329640 7132.0
83.707062520 6707.0
83.728795400 6342.0
83.750528280 6125.0
83.772261160 6155.0
83.793994040 5854.0
83.815726920 5977.0
83.837459800 6220.0
83.859192680 6176.0
83.880925560 6417.0
83.902658440 6533.0
83.924391320 6663.0
83.946124200 6392.0
83.967857080 6267.0
83.989589960 6088.0
84.011322840 5907.0
84.033055720 5883.0
84.054788600 6115.0
84.076521480 6026.0
84.098254360 5881.0
84.119987240 5933.0
84.141720120 5850.0
84.163453000 5985.0
84.185185880 5881.0
84.206918760 6114.0
84.228651640 6084.0
84.250384520 5867.0
84.272117400 5962.0
84.293850280 5964.0
84.315583160 5770.0
84.337316040 5990.0
84.359048920 5972.0
84.380781800 6020.0
84.402514680 6010.0
84.424247560 5981.0
84.445980440 6127.0
84.467713320 6142.0
84.489446200 6245.0
84.511179080 6220.0
84.532911960 6444.0
84.554644840 6347.0
84.576377720 6532.0
84.598110600 6324.0
84.619843480 6258.0
84.641576360 6107.0
84.663309240 6408.0
84.685042120 6256.0
84.706775000 5987.0
84.728507880 6247.0
84.750240760 6056.0
84.771973640 6171.0
84.793706520 6221.0
84.815439400 6278.0
84.837172280 6136.0
84.858905160 6174.0
84.880638040 6252.0
84.902370920 6065.0
84.924103800 5860.0
84.945836680 6117.0
84.967569560 5924.0
84.989302440 5961.0
85.011035320 5837.0
85.032768200 5847.0
85.054501080 5962.0
85.076233960 6077.0
85.097966840 5988.0
85.119699720 5970.0
85.141432600 5719.0
85.163165480 6021.0
85.184898360 5914.0
85.206631240 5839.0
85.228364120 5887.0
85.250097000 5926.0
85.271829880 5944.0
85.293562760 5967.0
85.315295640 6037.0
85.337028520 6074.0
85.358761400 6018.0
85.380494280 5996.0
85.402227160 5877.0
85.423960040 5931.0
85.445692920 6060.0
85.467425800 5930.0
85.489158680 5963.0
85.510891560 5918.0
85.532624440 5893.0
85.554357320 5965.0
85.576090200 6051.0
85.597823080 5999.0
85.619555960 5957.0
85.641288840 5822.0
85.663021720 5885.0
85.684754600 5896.0
85.706487480 6030.0
85.728220360 5816.0
85.749953240 5912.0
85.771686120 5914.0
85.793419000 5829.0
85.815151880 5764.0
85.836884760 5938.0
85.858617640 5774.0
85.880350520 5869.0
85.902083400 5826.0
85.923816280 5840.0
85.945549160 5711.0
85.967282040 5713.0
85.989014920 5773.0
86.010747800 5729.0
86.032480680 5824.0
86.054213560 5726.0
86.075946440 5545.0
86.097679320 5702.0
86.119412200 5831.0
86.141145080 5563.0
86.162877960 5737.0
86.184610840 5722.0
86.206343720 5784.0
86.228076600 5591.0
86.249809480 5693.0
86.271542360 5795.0
86.293275240 5704.0
86.315008120 5733.0
86.336741000 5643.0
86.358473880 5737.0
86.380206760 5630.0
86.401939640 5745.0
86.423672520 5738.0
86.445405400 5628.0
86.467138280 5661.0
86.488871160 5847.0
86.510604040 5670.0
86.532336920 5616.0
86.554069800 5738.0
86.575802680 5579.0
86.597535560 5630.0
86.619268440 5723.0
86.641001320 5451.0
86.662734200 5815.0
86.684467080 5770.0
86.706199960 5800.0
86.727932840 5811.0
86.749665720 5696.0
86.771398600 5883.0
86.793131480 5749.0
86.814864360 5800.0
86.836597240 5890.0
86.858330120 5741.0
86.880063000 5812.0
86.901795880 5806.0
86.923528760 5661.0
86.945261640 5732.0
86.966994520 5804.0
86.988727400 5628.0
87.010460280 5770.0
87.032193160 5783.0
87.053926040 5619.0
87.075658920 5767.0
87.097391800 5779.0
87.119124680 5539.0
87.140857560 5782.0
87.162590440 5787.0
87.184323320 5724.0
87.206056200 5700.0
87.227789080 5741.0
87.249521960 5704.0
87.271254840 5734.0
87.292987720 5704.0
87.314720600 5708.0
87.336453480 5709.0
87.358186360 5590.0
87.379919240 5723.0
87.401652120 5581.0
87.423385000 5739.0
87.445117880 5779.0
87.466850760 5802.0
87.488583640 5813.0
87.510316520 5760.0
87.532049400 5740.0
87.553782280 5697.0
87.575515160 5659.0
87.597248040 5745.0
87.618980920 5680.0
87.640713800 5817.0
87.662446680 5666.0
87.684179560 5720.0
87.705912440 5676.0
87.727645320 5689.0
87.749378200 5866.0
87.771111080 5633.0
87.792843960 5660.0
87.814576840 5631.0
87.836309720 5678.0
87.858042600 5634.0
87.879775480 5731.0
87.901508360 5605.0
87.923241240 5637.0
87.944974120 5427.0
87.966707000 5679.0
87.988439880 5686.0
88.010172760 5744.0
88.031905640 5723.0
88.053638520 5525.0
88.075371400 5640.0
88.097104280 5633.0
88.118837160 5799.0
88.140570040 5737.0
88.162302920 5748.0
88.184035800 5675.0
88.205768680 5681.0
88.227501560 5823.0
88.249234440 5586.0
88.270967320 5515.0
88.292700200 5677.0
88.314433080 5768.0
88.336165960 5813.0
88.357898840 5637.0
88.379631720 5755.0
88.401364600 5608.0
88.423097480 5659.0
88.444830360 5619.0
88.466563240 5737.0
88.488296120 5697.0
88.510029000 5711.0
88.531761880 5736.0
88.553494760 5682.0
88.575227640 5631.0
88.596960520 5635.0
88.618693400 5752.0
88.640426280 5556.0
88.662159160 5710.0
88.683892040 5648.0
88.705624920 5579.0
88.727357800 5665.0
88.749090680 5717.0
88.770823560 5645.0
88.792556440 5608.0
88.814289320 5758.0
88.836022200 5786.0
88.857755080 5694.0
88.879487960 5646.0
88.901220840 5660.0
88.922953720 5629.0
88.944686600 5700.0
88.966419480 5611.0
88.988152360 5782.0
89.009885240 5610.0
89.031618120 5718.0
89.053351000 5678.0
89.075083880 5763.0
89.096816760 5755.0
89.118549640 5667.0
89.140282520 5754.0
89.162015400 5735.0
89.183748280 5788.0
89.205481160 5612.0
89.227214040 5579.0
89.248946920 5797.0
89.270679800 5647.0
89.292412680 5682.0
89.314145560 5738.0
89.335878440 5855.0
89.357611320 5702.0
89.379344200 5795.0
89.401077080 5726.0
89.422809960 5726.0
89.444542840 5695.0
89.466275720 5745.0
89.488008600 5670.0
89.509741480 5698.0
89.531474360 5641.0
89.553207240 5679.0
89.574940120 5722.0
89.596673000 5672.0
89.618405880 5606.0
89.640138760 5646.0
89.661871640 5674.0
89.683604520 5762.0
89.705337400 5813.0
89.727070280 5595.0
89.748803160 5787.0
89.770536040 5457.0
89.792268920 5718.0
89.814001800 5761.0
89.835734680 5810.0
89.857467560 5677.0
89.879200440 5680.0
