10.010866440 3460.0
10.032599320 3379.0
10.054332200 3353.0
10.076065080 3425.0
10.097797960 3468.0
10.119530840 3536.0
10.141263720 3528.0
10.162996600 3511.0
10.184729480 3493.0
10.206462360 3398.0
10.228195240 3420.0
10.249928120 3408.0
10.271661000 3509.0
10.293393880 3376.0
10.315126760 3554.0
10.336859640 3534.0
10.358592520 3529.0
10.380325400 3464.0
10.402058280 3441.0
10.423791160 3481.0
10.445524040 3430.0
10.467256920 3517.0
10.488989800 3579.0
10.510722680 3614.0
10.532455560 3573.0
10.554188440 3602.0
10.575921320 3507.0
10.597654200 3520.0
10.619387080 3361.0
10.641119960 3426.0
10.662852840 3457.0
10.684585720 3441.0
10.706318600 3570.0
10.728051480 3429.0
10.749784360 3604.0
10.771517240 3502.0
10.793250120 3579.0
10.814983000 3553.0
10.836715880 3785.0
10.858448760 3753.0
10.880181640 3950.0
10.901914520 3952.0
10.923647400 4315.0
10.945380280 4386.0
10.967113160 4703.0
10.988846040 4635.0
11.010578920 4370.0
11.032311800 3900.0
11.054044680 3576.0
11.075777560 3402.0
11.097510440 3313.0
11.119243320 3320.0
11.140976200 3222.0
11.162709080 3337.0
11.184441960 3145.0
11.206174840 3253.0
11.227907720 3243.0
11.249640600 3225.0
11.271373480 3189.0
11.293106360 3190.0
11.314839240 3262.0
11.336572120 3211.0
11.358305000 3184.0
11.380037880 3219.0
11.401770760 3082.0
11.423503640 3171.0
11.445236520 3227.0
11.466969400 3189.0
11.488702280 3284.0
11.510435160 3240.0
11.532168040 3174.0
11.553900920 3136.0
11.575633800 3133.0
11.597366680 3200.0
11.619099560 3175.0
11.640832440 3178.0
11.662565320 3160.0
11.684298200 3164.0
11.706031080 3110.0
11.727763960 3262.0
11.749496840 3168.0
11.771229720 3234.0
11.792962600 3265.0
11.814695480 3298.0
11.836428360 3343.0
11.858161240 3296.0
11.879894120 3271.0
11.901627000 3287.0
11.923359880 3428.0
11.945092760 3397.0
11.966825640 3522.0
11.988558520 3499.0
12.010291400 3333.0
12.032024280 3114.0
12.053757160 3074.0
12.075490040 3130.0
12.097222920 3018.0
12.118955800 3011.0
12.140688680 2956.0
12.162421560 3047.0
12.184154440 3017.0
12.205887320 3033.0
12.227620200 2915.0
12.249353080 3028.0
12.271085960 3059.0
12.292818840 2943.0
12.314551720 2974.0
12.336284600 2977.0
12.358017480 3097.0
12.379750360 3001.0
12.401483240 2939.0
12.423216120 3041.0
12.444949000 2980.0
12.466681880 2938.0
12.488414760 2978.0
12.510147640 2886.0
12.531880520 3102.0
12.553613400 2926.0
12.575346280 2867.0
12.597079160 2833.0
12.618812040 2930.0
12.640544920 2951.0
12.662277800 2873.0
12.684010680 2940.0
12.705743560 2934.0
12.727476440 2893.0
12.749209320 2864.0
12.770942200 3017.0
12.792675080 2928.0
12.814407960 2844.0
12.836140840 2950.0
12.857873720 2913.0
12.879606600 2848.0
12.901339480 2792.0
12.923072360 2784.0
12.944805240 2913.0
12.966538120 2879.0
12.988271000 2840.0
13.010003880 2830.0
13.031736760 2807.0
13.053469640 2780.0
13.075202520 2806.0
13.096935400 2816.0
13.118668280 2790.0
13.140401160 2871.0
13.162134040 2862.0
13.183866920 2841.0
13.205599800 2722.0
13.227332680 2850.0
13.249065560 2765.0
13.270798440 2870.0
13.292531320 2845.0
13.314264200 2843.0
13.335997080 2780.0
13.357729960 2764.0
13.379462840 2794.0
13.401195720 2868.0
13.422928600 2721.0
13.444661480 2758.0
13.466394360 2723.0
13.488127240 2852.0
13.509860120 2833.0
13.531593000 2882.0
13.553325880 2805.0
13.575058760 2758.0
13.596791640 2794.0
13.618524520 2822.0
13.640257400 2880.0
13.661990280 2781.0
13.683723160 2773.0
13.705456040 2761.0
13.727188920 2848.0
13.748921800 2782.0
13.770654680 2842.0
13.792387560 2912.0
13.814120440 2971.0
13.835853320 2999.0
13.857586200 2922.0
13.879319080 3046.0
13.901051960 3009.0
13.922784840 3089.0
13.944517720 3160.0
13.966250600 3288.0
13.987983480 3306.0
14.009716360 3306.0
14.031449240 3596.0
14.053182120 3740.0
14.074915000 4016.0
14.096647880 4453.0
14.118380760 4683.0
14.140113640 5334.0
14.161846520 5910.0
14.183579400 6440.0
14.205312280 7066.0
14.227045160 7372.0
14.248778040 7849.0
14.270510920 7633.0
14.292243800 6450.0
14.313976680 5121.0
14.335709560 4060.0
14.357442440 3471.0
14.379175320 3066.0
14.400908200 2803.0
14.422641080 2774.0
14.444373960 2843.0
14.466106840 2731.0
14.487839720 2704.0
14.509572600 2727.0
14.531305480 2667.0
14.553038360 2734.0
14.574771240 2568.0
14.596504120 2563.0
14.618237000 2645.0
14.639969880 2524.0
14.661702760 2501.0
14.683435640 2508.0
14.705168520 2513.0
14.726901400 2455.0
14.748634280 2521.0
14.770367160 2511.0
14.792100040 2438.0
14.813832920 2547.0
14.835565800 2514.0
14.857298680 2429.0
14.879031560 2524.0
14.900764440 2428.0
14.922497320 2461.0
14.944230200 2390.0
14.965963080 2486.0
14.987695960 2416.0
15.009428840 2337.0
15.031161720 2498.0
15.052894600 2360.0
15.074627480 2409.0
15.096360360 2376.0
15.118093240 2420.0
15.139826120 2349.0
15.161559000 2398.0
15.183291880 2504.0
15.205024760 2364.0
15.226757640 2333.0
15.248490520 2311.0
15.270223400 2369.0
15.291956280 2470.0
15.313689160 2475.0
15.335422040 2387.0
15.357154920 2437.0
15.378887800 2490.0
15.400620680 2441.0
15.422353560 2393.0
15.444086440 2548.0
15.465819320 2373.0
15.487552200 2403.0
15.509285080 2355.0
15.531017960 2329.0
15.552750840 2316.0
15.574483720 2399.0
15.596216600 2396.0
15.617949480 2298.0
15.639682360 2331.0
15.661415240 2339.0
15.683148120 2295.0
15.704881000 2300.0
15.726613880 2311.0
15.748346760 2340.0
15.770079640 2408.0
15.791812520 2453.0
15.813545400 2421.0
15.835278280 2401.0
15.857011160 2342.0
15.878744040 2279.0
15.900476920 2247.0
15.922209800 2198.0
15.943942680 2305.0
15.965675560 2166.0
15.987408440 2242.0
16.009141320 2176.0
16.030874200 2179.0
16.052607080 2208.0
16.074339960 2261.0
16.096072840 2266.0
16.117805720 2160.0
16.139538600 2225.0
16.161271480 2137.0
16.183004360 2179.0
16.204737240 2261.0
16.226470120 2229.0
16.248203000 2171.0
16.269935880 2210.0
16.291668760 2121.0
16.313401640 2195.0
16.335134520 2128.0
16.356867400 2124.0
16.378600280 2126.0
16.400333160 2156.0
16.422066040 2066.0
16.443798920 2072.0
16.465531800 2177.0
16.487264680 2075.0
16.508997560 2083.0
16.530730440 2107.0
16.552463320 2048.0
16.574196200 2081.0
16.595929080 2119.0
16.617661960 2119.0
16.639394840 2104.0
16.661127720 2110.0
16.682860600 2181.0
16.704593480 2103.0
16.726326360 2188.0
16.748059240 2143.0
16.769792120 2158.0
16.791525000 2152.0
16.813257880 2174.0
16.834990760 2039.0
16.856723640 2157.0
16.878456520 2209.0
16.900189400 2124.0
16.921922280 2129.0
16.943655160 2085.0
16.965388040 2081.0
16.987120920 2150.0
17.008853800 2143.0
17.030586680 2151.0
17.052319560 2150.0
17.074052440 2121.0
17.095785320 2247.0
17.117518200 2334.0
17.139251080 2363.0
17.160983960 2467.0
17.182716840 2619.0
17.204449720 2859.0
17.226182600 3050.0
17.247915480 3068.0
17.269648360 3495.0
17.291381240 3726.0
17.313114120 4102.0
17.334847000 4318.0
17.356579880 4618.0
17.378312760 4532.0
17.400045640 4125.0
17.421778520 3595.0
17.443511400 2947.0
17.465244280 2423.0
17.486977160 2320.0
17.508710040 2130.0
17.530442920 2106.0
17.552175800 2082.0
17.573908680 1907.0
17.595641560 1996.0
17.617374440 1992.0
17.639107320 1947.0
17.660840200 1895.0
17.682573080 1996.0
17.704305960 1916.0
17.726038840 2000.0
17.747771720 1894.0
17.769504600 1947.0
17.791237480 1907.0
17.812970360 1982.0
17.834703240 1930.0
17.856436120 2085.0
17.878169000 2014.0
17.899901880 2071.0
17.921634760 2139.0
17.943367640 2113.0
17.965100520 2211.0
17.986833400 2299.0
18.008566280 2251.0
18.030299160 2279.0
18.052032040 2149.0
18.073764920 1986.0
18.095497800 1920.0
18.117230680 1920.0
18.138963560 1787.0
18.160696440 1777.0
18.182429320 1878.0
18.204162200 1791.0
18.225895080 1784.0
18.247627960 1767.0
18.269360840 1767.0
18.291093720 1813.0
18.312826600 1826.0
18.334559480 1787.0
18.356292360 1749.0
18.378025240 1811.0
18.399758120 1819.0
18.421491000 1790.0
18.443223880 1795.0
18.464956760 1803.0
18.486689640 1754.0
18.508422520 1683.0
18.530155400 1738.0
18.551888280 1762.0
18.573621160 1749.0
18.595354040 1753.0
18.617086920 1744.0
18.638819800 1801.0
18.660552680 1730.0
18.682285560 1693.0
18.704018440 1754.0
18.725751320 1678.0
18.747484200 1656.0
18.769217080 1724.0
18.790949960 1678.0
18.812682840 1652.0
18.834415720 1702.0
18.856148600 1674.0
18.877881480 1654.0
18.899614360 1678.0
18.921347240 1763.0
18.943080120 1609.0
18.964813000 1618.0
18.986545880 1601.0
19.008278760 1698.0
19.030011640 1713.0
19.051744520 1633.0
19.073477400 1589.0
19.095210280 1630.0
19.116943160 1709.0
19.138676040 1673.0
19.160408920 1674.0
19.182141800 1722.0
19.203874680 1718.0
19.225607560 1621.0
19.247340440 1662.0
19.269073320 1752.0
19.290806200 1687.0
19.312539080 1648.0
19.334271960 1656.0
19.356004840 1636.0
19.377737720 1600.0
19.399470600 1699.0
19.421203480 1666.0
19.442936360 1767.0
19.464669240 1648.0
19.486402120 1705.0
19.508135000 1799.0
19.529867880 1828.0
19.551600760 1836.0
19.573333640 1825.0
19.595066520 1827.0
19.616799400 1771.0
19.638532280 1710.0
19.660265160 1697.0
19.681998040 1725.0
19.703730920 1604.0
19.725463800 1582.0
19.747196680 1623.0
19.768929560 1633.0
19.790662440 1623.0
19.812395320 1598.0
19.834128200 1570.0
19.855861080 1631.0
19.877593960 1594.0
19.899326840 1637.0
19.921059720 1692.0
19.942792600 1600.0
19.964525480 1578.0
19.986258360 1566.0
20.007991240 1572.0
20.029724120 1676.0
20.051457000 1671.0
20.073189880 1599.0
20.094922760 1575.0
20.116655640 1581.0
20.138388520 1590.0
20.160121400 1672.0
20.181854280 1606.0
20.203587160 1662.0
20.225320040 1710.0
20.247052920 1748.0
20.268785800 1797.0
20.290518680 1843.0
20.312251560 2059.0
20.333984440 2066.0
20.355717320 2307.0
20.377450200 2375.0
20.399183080 2330.0
20.420915960 2297.0
20.442648840 2091.0
20.464381720 1962.0
20.486114600 1807.0
20.507847480 1705.0
20.529580360 1630.0
20.551313240 1575.0
20.573046120 1548.0
20.594779000 1448.0
20.616511880 1495.0
20.638244760 1434.0
20.659977640 1562.0
20.681710520 1511.0
20.703443400 1482.0
20.725176280 1432.0
20.746909160 1501.0
20.768642040 1493.0
20.790374920 1459.0
20.812107800 1475.0
20.833840680 1461.0
20.855573560 1476.0
20.877306440 1480.0
20.899039320 1488.0
20.920772200 1485.0
20.942505080 1406.0
20.964237960 1471.0
20.985970840 1562.0
21.007703720 1490.0
21.029436600 1516.0
21.051169480 1527.0
21.072902360 1551.0
21.094635240 1518.0
21.116368120 1488.0
21.138101000 1526.0
21.159833880 1501.0
21.181566760 1562.0
21.203299640 1636.0
21.225032520 1613.0
21.246765400 1584.0
21.268498280 1556.0
21.290231160 1690.0
21.311964040 1679.0
21.333696920 1671.0
21.355429800 1736.0
21.377162680 1811.0
21.398895560 1832.0
21.420628440 1933.0
21.442361320 1897.0
21.464094200 1719.0
21.485827080 1764.0
21.507559960 1616.0
21.529292840 1570.0
21.551025720 1553.0
21.572758600 1649.0
21.594491480 1644.0
21.616224360 1641.0
21.637957240 1706.0
21.659690120 1650.0
21.681423000 1694.0
21.703155880 1688.0
21.724888760 1641.0
21.746621640 1642.0
21.768354520 1717.0
21.790087400 1751.0
21.811820280 1682.0
21.833553160 1793.0
21.855286040 1809.0
21.877018920 1913.0
21.898751800 2157.0
21.920484680 2327.0
21.942217560 2561.0
21.963950440 2738.0
21.985683320 2950.0
22.007416200 3205.0
22.029149080 3106.0
22.050881960 2632.0
22.072614840 2377.0
22.094347720 2008.0
22.116080600 1780.0
22.137813480 1597.0
22.159546360 1556.0
22.181279240 1509.0
22.203012120 1504.0
22.224745000 1547.0
22.246477880 1487.0
22.268210760 1530.0
22.289943640 1506.0
22.311676520 1517.0
22.333409400 1504.0
22.355142280 1611.0
22.376875160 1638.0
22.398608040 1683.0
22.420340920 1776.0
22.442073800 1759.0
22.463806680 1879.0
22.485539560 2041.0
22.507272440 2089.0
22.529005320 2010.0
22.550738200 1964.0
22.572471080 1828.0
22.594203960 1754.0
22.615936840 1767.0
22.637669720 1741.0
22.659402600 1543.0
22.681135480 1619.0
22.702868360 1623.0
22.724601240 1713.0
22.746334120 1646.0
22.768067000 1683.0
22.789799880 1600.0
22.811532760 1536.0
22.833265640 1614.0
22.854998520 1627.0
22.876731400 1693.0
22.898464280 1723.0
22.920197160 1735.0
22.941930040 1696.0
22.963662920 1917.0
22.985395800 1969.0
23.007128680 2223.0
23.028861560 2264.0
23.050594440 2482.0
23.072327320 2528.0
23.094060200 2632.0
23.115793080 2696.0
23.137525960 2658.0
23.159258840 2595.0
23.180991720 2682.0
23.202724600 2947.0
23.224457480 3114.0
23.246190360 3688.0
23.267923240 4324.0
23.289656120 5033.0
23.311389000 5848.0
23.333121880 6632.0
23.354854760 7178.0
23.376587640 6900.0
23.398320520 5734.0
23.420053400 4995.0
23.441786280 4062.0
23.463519160 2999.0
23.485252040 2384.0
23.506984920 2119.0
23.528717800 1890.0
23.550450680 1723.0
23.572183560 1695.0
23.593916440 1595.0
23.615649320 1627.0
23.637382200 1480.0
23.659115080 1561.0
23.680847960 1457.0
23.702580840 1410.0
23.724313720 1444.0
23.746046600 1449.0
23.767779480 1522.0
23.789512360 1562.0
23.811245240 1443.0
23.832978120 1535.0
23.854711000 1506.0
23.876443880 1468.0
23.898176760 1540.0
23.919909640 1560.0
23.941642520 1575.0
23.963375400 1652.0
23.985108280 1749.0
24.006841160 1730.0
24.028574040 1822.0
24.050306920 1742.0
24.072039800 1816.0
24.093772680 1746.0
24.115505560 1673.0
24.137238440 1507.0
24.158971320 1467.0
24.180704200 1470.0
24.202437080 1481.0
24.224169960 1382.0
24.245902840 1355.0
24.267635720 1430.0
24.289368600 1393.0
24.311101480 1528.0
24.332834360 1351.0
24.354567240 1347.0
24.376300120 1411.0
24.398033000 1506.0
24.419765880 1435.0
24.441498760 1432.0
24.463231640 1508.0
24.484964520 1463.0
24.506697400 1434.0
24.528430280 1493.0
24.550163160 1473.0
24.571896040 1332.0
24.593628920 1383.0
24.615361800 1346.0
24.637094680 1395.0
24.658827560 1448.0
24.680560440 1461.0
24.702293320 1482.0
24.724026200 1502.0
24.745759080 1504.0
24.767491960 1480.0
24.789224840 1538.0
24.810957720 1493.0
24.832690600 1443.0
24.854423480 1422.0
24.876156360 1492.0
24.897889240 1455.0
24.919622120 1653.0
24.941355000 1648.0
24.963087880 1753.0
24.984820760 1748.0
25.006553640 1766.0
25.028286520 2006.0
25.050019400 1994.0
25.071752280 1955.0
25.093485160 2009.0
25.115218040 2204.0
25.136950920 2173.0
25.158683800 2344.0
25.180416680 2643.0
25.202149560 2833.0
25.223882440 2979.0
25.245615320 2995.0
25.267348200 2544.0
25.289081080 2280.0
25.310813960 1966.0
25.332546840 1799.0
25.354279720 1691.0
25.376012600 1649.0
25.397745480 1635.0
25.419478360 1538.0
25.441211240 1604.0
25.462944120 1483.0
25.484677000 1546.0
25.506409880 1557.0
25.528142760 1540.0
25.549875640 1521.0
25.571608520 1481.0
25.593341400 1452.0
25.615074280 1467.0
25.636807160 1410.0
25.658540040 1486.0
25.680272920 1510.0
25.702005800 1490.0
25.723738680 1629.0
25.745471560 1749.0
25.767204440 1811.0
25.788937320 1886.0
25.810670200 2017.0
25.832403080 2131.0
25.854135960 2320.0
25.875868840 2353.0
25.897601720 2243.0
25.919334600 2057.0
25.941067480 2039.0
25.962800360 2012.0
25.984533240 1983.0
26.006266120 1990.0
26.027999000 1964.0
26.049731880 2046.0
26.071464760 2112.0
26.093197640 2039.0
26.114930520 2021.0
26.136663400 2043.0
26.158396280 2041.0
26.180129160 1943.0
26.201862040 1971.0
26.223594920 2073.0
26.245327800 2243.0
26.267060680 2278.0
26.288793560 2549.0
26.310526440 2759.0
26.332259320 2505.0
26.353992200 2432.0
26.375725080 2085.0
26.397457960 1975.0
26.419190840 1731.0
26.440923720 1567.0
26.462656600 1621.0
26.484389480 1530.0
26.506122360 1561.0
26.527855240 1520.0
26.549588120 1529.0
26.571321000 1552.0
26.593053880 1547.0
26.614786760 1643.0
26.636519640 1713.0
26.658252520 1755.0
26.679985400 1771.0
26.701718280 1821.0
26.723451160 1788.0
26.745184040 1785.0
26.766916920 1754.0
26.788649800 1700.0
26.810382680 1727.0
26.832115560 1686.0
26.853848440 1596.0
26.875581320 1669.0
26.897314200 1709.0
26.919047080 1697.0
26.940779960 1628.0
26.962512840 1757.0
26.984245720 1854.0
27.005978600 1886.0
27.027711480 1959.0
27.049444360 2069.0
27.071177240 2200.0
27.092910120 2248.0
27.114643000 2331.0
27.136375880 2517.0
27.158108760 2788.0
27.179841640 3051.0
27.201574520 3434.0
27.223307400 3894.0
27.245040280 4797.0
27.266773160 5854.0
27.288506040 7233.0
27.310238920 8996.0
27.331971800 11882.0
27.353704680 15079.0
27.375437560 19262.0
27.397170440 23815.0
27.418903320 28974.0
27.440636200 33177.0
27.462369080 34822.0
27.484101960 30660.0
27.505834840 24377.0
27.527567720 19935.0
27.549300600 14977.0
27.571033480 10022.0
27.592766360 6818.0
27.614499240 4862.0
27.636232120 3997.0
27.657965000 3606.0
27.679697880 3294.0
27.701430760 3132.0
27.723163640 2974.0
27.744896520 2755.0
27.766629400 2705.0
27.788362280 2443.0
27.810095160 2356.0
27.831828040 2161.0
27.853560920 2136.0
27.875293800 2020.0
27.897026680 1928.0
27.918759560 1980.0
27.940492440 1929.0
27.962225320 1972.0
27.983958200 1948.0
28.005691080 2101.0
28.027423960 1982.0
28.049156840 1977.0
28.070889720 1896.0
28.092622600 1781.0
28.114355480 1751.0
28.136088360 1649.0
28.157821240 1650.0
28.179554120 1549.0
28.201287000 1586.0
28.223019880 1486.0
28.244752760 1501.0
28.266485640 1467.0
28.288218520 1592.0
28.309951400 1498.0
28.331684280 1470.0
28.353417160 1480.0
28.375150040 1489.0
28.396882920 1579.0
28.418615800 1611.0
28.440348680 1646.0
28.462081560 1655.0
28.483814440 1712.0
28.505547320 1840.0
28.527280200 1993.0
28.549013080 2144.0
28.570745960 2336.0
28.592478840 2647.0
28.614211720 2962.0
28.635944600 3528.0
28.657677480 3927.0
28.679410360 4390.0
28.701143240 4682.0
28.722876120 4266.0
28.744609000 3607.0
28.766341880 3219.0
28.788074760 2911.0
28.809807640 2327.0
28.831540520 1918.0
28.853273400 1725.0
28.875006280 1638.0
28.896739160 1632.0
28.918472040 1630.0
28.940204920 1527.0
28.961937800 1655.0
28.983670680 1557.0
29.005403560 1477.0
29.027136440 1453.0
29.048869320 1437.0
29.070602200 1492.0
29.092335080 1380.0
29.114067960 1362.0
29.135800840 1373.0
29.157533720 1341.0
29.179266600 1370.0
29.200999480 1385.0
29.222732360 1371.0
29.244465240 1359.0
29.266198120 1354.0
29.287931000 1275.0
29.309663880 1320.0
29.331396760 1407.0
29.353129640 1356.0
29.374862520 1366.0
29.396595400 1317.0
29.418328280 1449.0
29.440061160 1445.0
29.461794040 1409.0
29.483526920 1530.0
29.505259800 1489.0
29.526992680 1518.0
29.548725560 1558.0
29.570458440 1609.0
29.592191320 1628.0
29.613924200 1803.0
29.635657080 1854.0
29.657389960 1883.0
29.679122840 1944.0
29.700855720 2008.0
29.722588600 2157.0
29.744321480 2219.0
29.766054360 2319.0
29.787787240 2424.0
29.809520120 2409.0
29.831253000 2224.0
29.852985880 2079.0
29.874718760 1824.0
29.896451640 1753.0
29.918184520 1591.0
29.939917400 1516.0
29.961650280 1504.0
29.983383160 1420.0
30.005116040 1516.0
30.026848920 1445.0
30.048581800 1472.0
30.070314680 1466.0
30.092047560 1425.0
30.113780440 1524.0
30.135513320 1589.0
30.157246200 1690.0
30.178979080 1794.0
30.200711960 1969.0
30.222444840 2204.0
30.244177720 2283.0
30.265910600 2307.0
30.287643480 2086.0
30.309376360 1984.0
30.331109240 1928.0
30.352842120 1699.0
30.374575000 1560.0
30.396307880 1490.0
30.418040760 1364.0
30.439773640 1405.0
30.461506520 1414.0
30.483239400 1386.0
30.504972280 1289.0
30.526705160 1327.0
30.548438040 1210.0
30.570170920 1346.0
30.591903800 1289.0
30.613636680 1298.0
30.635369560 1280.0
30.657102440 1295.0
30.678835320 1285.0
30.700568200 1265.0
30.722301080 1244.0
30.744033960 1286.0
30.765766840 1335.0
30.787499720 1288.0
30.809232600 1248.0
30.830965480 1286.0
30.852698360 1299.0
30.874431240 1268.0
30.896164120 1307.0
30.917897000 1321.0
30.939629880 1221.0
30.961362760 1278.0
30.983095640 1284.0
31.004828520 1195.0
31.026561400 1248.0
31.048294280 1276.0
31.070027160 1231.0
31.091760040 1259.0
31.113492920 1222.0
31.135225800 1227.0
31.156958680 1194.0
31.178691560 1244.0
31.200424440 1280.0
31.222157320 1318.0
31.243890200 1328.0
31.265623080 1362.0
31.287355960 1328.0
31.309088840 1469.0
31.330821720 1499.0
31.352554600 1597.0
31.374287480 1643.0
31.396020360 1711.0
31.417753240 1723.0
31.439486120 1679.0
31.461219000 1654.0
31.482951880 1552.0
31.504684760 1545.0
31.526417640 1410.0
31.548150520 1464.0
31.569883400 1413.0
31.591616280 1434.0
31.613349160 1448.0
31.635082040 1575.0
31.656814920 1623.0
31.678547800 1695.0
31.700280680 1783.0
31.722013560 1628.0
31.743746440 1613.0
31.765479320 1605.0
31.787212200 1553.0
31.808945080 1420.0
31.830677960 1505.0
31.852410840 1415.0
31.874143720 1405.0
31.895876600 1324.0
31.917609480 1346.0
31.939342360 1309.0
31.961075240 1295.0
31.982808120 1390.0
32.004541000 1339.0
32.026273880 1389.0
32.048006760 1440.0
32.069739640 1524.0
32.091472520 1639.0
32.113205400 1788.0
32.134938280 1953.0
32.156671160 1925.0
32.178404040 1997.0
32.200136920 2068.0
32.221869800 2111.0
32.243602680 2212.0
32.265335560 2255.0
32.287068440 2289.0
32.308801320 2269.0
32.330534200 2153.0
32.352267080 1931.0
32.373999960 1879.0
32.395732840 1820.0
32.417465720 1801.0
32.439198600 1768.0
32.460931480 1873.0
32.482664360 1813.0
32.504397240 1968.0
32.526130120 1962.0
32.547863000 1997.0
32.569595880 2026.0
32.591328760 2096.0
32.613061640 2270.0
32.634794520 2306.0
32.656527400 2350.0
32.678260280 2369.0
32.699993160 2202.0
32.721726040 2032.0
32.743458920 2036.0
32.765191800 2008.0
32.786924680 1900.0
32.808657560 1872.0
32.830390440 1920.0
32.852123320 2051.0
32.873856200 2142.0
32.895589080 2295.0
32.917321960 2432.0
32.939054840 2616.0
32.960787720 2702.0
32.982520600 2857.0
33.004253480 3055.0
33.025986360 3206.0
33.047719240 3565.0
33.069452120 4009.0
33.091185000 4875.0
33.112917880 6123.0
33.134650760 7753.0
33.156383640 10142.0
33.178116520 13511.0
33.199849400 17762.0
33.221582280 23070.0
33.243315160 28852.0
33.265048040 31404.0
33.286780920 26400.0
33.308513800 20142.0
33.330246680 18006.0
33.351979560 15629.0
33.373712440 11709.0
33.395445320 7165.0
33.417178200 4703.0
33.438911080 3501.0
33.460643960 2907.0
33.482376840 2745.0
33.504109720 2514.0
33.525842600 2381.0
33.547575480 2383.0
33.569308360 2283.0
33.591041240 2379.0
33.612774120 2302.0
33.634507000 2352.0
33.656239880 2211.0
33.677972760 2231.0
33.699705640 2120.0
33.721438520 1987.0
33.743171400 2007.0
33.764904280 1913.0
33.786637160 1738.0
33.808370040 1629.0
33.830102920 1766.0
33.851835800 1615.0
33.873568680 1610.0
33.895301560 1630.0
33.917034440 1610.0
33.938767320 1613.0
33.960500200 1704.0
33.982233080 1810.0
34.003965960 1945.0
34.025698840 2084.0
34.047431720 2119.0
34.069164600 2162.0
34.090897480 2109.0
34.112630360 1955.0
34.134363240 1936.0
34.156096120 1875.0
34.177829000 1719.0
34.199561880 1566.0
34.221294760 1515.0
34.243027640 1438.0
34.264760520 1452.0
34.286493400 1340.0
34.308226280 1294.0
34.329959160 1307.0
34.351692040 1391.0
34.373424920 1280.0
34.395157800 1251.0
34.416890680 1313.0
34.438623560 1307.0
34.460356440 1265.0
34.482089320 1236.0
34.503822200 1206.0
34.525555080 1340.0
34.547287960 1250.0
34.569020840 1321.0
34.590753720 1286.0
34.612486600 1321.0
34.634219480 1313.0
34.655952360 1313.0
34.677685240 1309.0
34.699418120 1272.0
34.721151000 1242.0
34.742883880 1322.0
34.764616760 1429.0
34.786349640 1451.0
34.808082520 1565.0
34.829815400 1654.0
34.851548280 1595.0
34.873281160 1704.0
34.895014040 1648.0
34.916746920 1583.0
34.938479800 1508.0
34.960212680 1481.0
34.981945560 1370.0
35.003678440 1381.0
35.025411320 1405.0
35.047144200 1380.0
35.068877080 1321.0
35.090609960 1423.0
35.112342840 1431.0
35.134075720 1306.0
35.155808600 1321.0
35.177541480 1331.0
35.199274360 1341.0
35.221007240 1294.0
35.242740120 1312.0
35.264473000 1276.0
35.286205880 1281.0
35.307938760 1302.0
35.329671640 1354.0
35.351404520 1316.0
35.373137400 1425.0
35.394870280 1470.0
35.416603160 1558.0
35.438336040 1727.0
35.460068920 1799.0
35.481801800 1722.0
35.503534680 1596.0
35.525267560 1497.0
35.547000440 1531.0
35.568733320 1428.0
35.590466200 1329.0
35.612199080 1234.0
35.633931960 1192.0
35.655664840 1224.0
35.677397720 1225.0
35.699130600 1288.0
35.720863480 1241.0
35.742596360 1199.0
35.764329240 1227.0
35.786062120 1228.0
35.807795000 1246.0
35.829527880 1269.0
35.851260760 1300.0
35.872993640 1303.0
35.894726520 1275.0
35.916459400 1309.0
35.938192280 1231.0
35.959925160 1228.0
35.981658040 1230.0
36.003390920 1242.0
36.025123800 1262.0
36.046856680 1366.0
36.068589560 1236.0
36.090322440 1322.0
36.112055320 1383.0
36.133788200 1335.0
36.155521080 1442.0
36.177253960 1435.0
36.198986840 1489.0
36.220719720 1600.0
36.242452600 1697.0
36.264185480 1884.0
36.285918360 2057.0
36.307651240 2194.0
36.329384120 2370.0
36.351117000 2439.0
36.372849880 2148.0
36.394582760 1993.0
36.416315640 1929.0
36.438048520 1824.0
36.459781400 1662.0
36.481514280 1478.0
36.503247160 1420.0
36.524980040 1400.0
36.546712920 1320.0
36.568445800 1324.0
36.590178680 1295.0
36.611911560 1328.0
36.633644440 1414.0
36.655377320 1345.0
36.677110200 1339.0
36.698843080 1276.0
36.720575960 1311.0
36.742308840 1278.0
36.764041720 1213.0
36.785774600 1219.0
36.807507480 1229.0
36.829240360 1184.0
36.850973240 1293.0
36.872706120 1236.0
36.894439000 1250.0
36.916171880 1290.0
36.937904760 1206.0
36.959637640 1207.0
36.981370520 1204.0
37.003103400 1242.0
37.024836280 1265.0
37.046569160 1300.0
37.068302040 1332.0
37.090034920 1273.0
37.111767800 1285.0
37.133500680 1221.0
37.155233560 1220.0
37.176966440 1217.0
37.198699320 1209.0
37.220432200 1174.0
37.242165080 1171.0
37.263897960 1194.0
37.285630840 1227.0
37.307363720 1164.0
37.329096600 1181.0
37.350829480 1216.0
37.372562360 1245.0
37.394295240 1244.0
37.416028120 1224.0
37.437761000 1232.0
37.459493880 1272.0
37.481226760 1138.0
37.502959640 1226.0
37.524692520 1171.0
37.546425400 1220.0
37.568158280 1267.0
37.589891160 1272.0
37.611624040 1324.0
37.633356920 1317.0
37.655089800 1352.0
37.676822680 1354.0
37.698555560 1402.0
37.720288440 1413.0
37.742021320 1520.0
37.763754200 1580.0
37.785487080 1457.0
37.807219960 1419.0
37.828952840 1359.0
37.850685720 1401.0
37.872418600 1415.0
37.894151480 1380.0
37.915884360 1465.0
37.937617240 1399.0
37.959350120 1523.0
37.981083000 1570.0
38.002815880 1712.0
38.024548760 1843.0
38.046281640 1985.0
38.068014520 2158.0
38.089747400 1970.0
38.111480280 1797.0
38.133213160 1688.0
38.154946040 1687.0
38.176678920 1678.0
38.198411800 1531.0
38.220144680 1478.0
38.241877560 1449.0
38.263610440 1377.0
38.285343320 1425.0
38.307076200 1381.0
38.328809080 1356.0
38.350541960 1241.0
38.372274840 1355.0
38.394007720 1258.0
38.415740600 1185.0
38.437473480 1196.0
38.459206360 1158.0
38.480939240 1188.0
38.502672120 1097.0
38.524405000 1146.0
38.546137880 1165.0
38.567870760 1168.0
38.589603640 1176.0
38.611336520 1219.0
38.633069400 1241.0
38.654802280 1210.0
38.676535160 1243.0
38.698268040 1243.0
38.720000920 1202.0
38.741733800 1217.0
38.763466680 1230.0
38.785199560 1198.0
38.806932440 1218.0
38.828665320 1193.0
38.850398200 1275.0
38.872131080 1215.0
38.893863960 1324.0
38.915596840 1383.0
38.937329720 1367.0
38.959062600 1512.0
38.980795480 1568.0
39.002528360 1660.0
39.024261240 1525.0
39.045994120 1451.0
39.067727000 1422.0
39.089459880 1512.0
39.111192760 1452.0
39.132925640 1404.0
39.154658520 1360.0
39.176391400 1370.0
39.198124280 1385.0
39.219857160 1367.0
39.241590040 1317.0
39.263322920 1346.0
39.285055800 1321.0
39.306788680 1339.0
39.328521560 1387.0
39.350254440 1404.0
39.371987320 1421.0
39.393720200 1398.0
39.415453080 1323.0
39.437185960 1376.0
39.458918840 1383.0
39.480651720 1357.0
39.502384600 1320.0
39.524117480 1358.0
39.545850360 1458.0
39.567583240 1566.0
39.589316120 1558.0
39.611049000 1661.0
39.632781880 1686.0
39.654514760 1635.0
39.676247640 1614.0
39.697980520 1622.0
39.719713400 1552.0
39.741446280 1417.0
39.763179160 1322.0
39.784912040 1359.0
39.806644920 1266.0
39.828377800 1294.0
39.850110680 1207.0
39.871843560 1262.0
39.893576440 1226.0
39.915309320 1168.0
39.937042200 1259.0
39.958775080 1171.0
39.980507960 1147.0
40.002240840 1194.0
40.023973720 1210.0
40.045706600 1162.0
40.067439480 1257.0
40.089172360 1234.0
40.110905240 1267.0
40.132638120 1268.0
40.154371000 1371.0
40.176103880 1344.0
40.197836760 1430.0
40.219569640 1538.0
40.241302520 1454.0
40.263035400 1369.0
40.284768280 1416.0
40.306501160 1400.0
40.328234040 1344.0
40.349966920 1452.0
40.371699800 1381.0
40.393432680 1347.0
40.415165560 1423.0
40.436898440 1526.0
40.458631320 1638.0
40.480364200 1856.0
40.502097080 2004.0
40.523829960 2102.0
40.545562840 2056.0
40.567295720 1807.0
40.589028600 1681.0
40.610761480 1707.0
40.632494360 1802.0
40.654227240 1629.0
40.675960120 1505.0
40.697693000 1422.0
40.719425880 1395.0
40.741158760 1337.0
40.762891640 1279.0
40.784624520 1326.0
40.806357400 1378.0
40.828090280 1403.0
40.849823160 1445.0
40.871556040 1536.0
40.893288920 1637.0
40.915021800 1763.0
40.936754680 2054.0
40.958487560 2417.0
40.980220440 2955.0
41.001953320 3276.0
41.023686200 3657.0
41.045419080 3483.0
41.067151960 2831.0
41.088884840 2530.0
41.110617720 2374.0
41.132350600 2386.0
41.154083480 2246.0
41.175816360 1896.0
41.197549240 1529.0
41.219282120 1444.0
41.241015000 1424.0
41.262747880 1383.0
41.284480760 1371.0
41.306213640 1292.0
41.327946520 1315.0
41.349679400 1347.0
41.371412280 1374.0
41.393145160 1524.0
41.414878040 1573.0
41.436610920 1618.0
41.458343800 1735.0
41.480076680 1622.0
41.501809560 1429.0
41.523542440 1428.0
41.545275320 1441.0
41.567008200 1480.0
41.588741080 1334.0
41.610473960 1262.0
41.632206840 1167.0
41.653939720 1224.0
41.675672600 1170.0
41.697405480 1201.0
41.719138360 1224.0
41.740871240 1205.0
41.762604120 1143.0
41.784337000 1234.0
41.806069880 1204.0
41.827802760 1169.0
41.849535640 1215.0
41.871268520 1233.0
41.893001400 1230.0
41.914734280 1208.0
41.936467160 1233.0
41.958200040 1189.0
41.979932920 1277.0
42.001665800 1281.0
42.023398680 1308.0
42.045131560 1315.0
42.066864440 1352.0
42.088597320 1332.0
42.110330200 1333.0
42.132063080 1342.0
42.153795960 1282.0
42.175528840 1284.0
42.197261720 1309.0
42.218994600 1289.0
42.240727480 1246.0
42.262460360 1225.0
42.284193240 1129.0
42.305926120 1283.0
42.327659000 1259.0
42.349391880 1236.0
42.371124760 1270.0
42.392857640 1287.0
42.414590520 1262.0
42.436323400 1353.0
42.458056280 1376.0
42.479789160 1317.0
42.501522040 1428.0
42.523254920 1490.0
42.544987800 1556.0
42.566720680 1523.0
42.588453560 1620.0
42.610186440 1544.0
42.631919320 1519.0
42.653652200 1541.0
42.675385080 1570.0
42.697117960 1586.0
42.718850840 1566.0
42.740583720 1543.0
42.762316600 1637.0
42.784049480 1681.0
42.805782360 1733.0
42.827515240 1829.0
42.849248120 1891.0
42.870981000 2090.0
42.892713880 2041.0
42.914446760 1851.0
42.936179640 1771.0
42.957912520 1597.0
42.979645400 1604.0
43.001378280 1625.0
43.023111160 1557.0
43.044844040 1548.0
43.066576920 1452.0
43.088309800 1389.0
43.110042680 1424.0
43.131775560 1486.0
43.153508440 1512.0
43.175241320 1503.0
43.196974200 1517.0
43.218707080 1567.0
43.240439960 1668.0
43.262172840 1725.0
43.283905720 1739.0
43.305638600 1765.0
43.327371480 1834.0
43.349104360 1936.0
43.370837240 2006.0
43.392570120 2145.0
43.414303000 2331.0
43.436035880 2631.0
43.457768760 2949.0
43.479501640 3451.0
43.501234520 4155.0
43.522967400 5178.0
43.544700280 6803.0
43.566433160 9096.0
43.588166040 11772.0
43.609898920 15171.0
43.631631800 17634.0
43.653364680 16991.0
43.675097560 13326.0
43.696830440 10466.0
43.718563320 10024.0
43.740296200 10375.0
43.762029080 9870.0
43.783761960 7268.0
43.805494840 4932.0
43.827227720 3709.0
43.848960600 2942.0
43.870693480 2639.0
43.892426360 2395.0
43.914159240 2114.0
43.935892120 2016.0
43.957625000 1912.0
43.979357880 1897.0
44.001090760 1753.0
44.022823640 1685.0
44.044556520 1619.0
44.066289400 1671.0
44.088022280 1672.0
44.109755160 1661.0
44.131488040 1663.0
44.153220920 1647.0
44.174953800 1706.0
44.196686680 1767.0
44.218419560 1729.0
44.240152440 1706.0
44.261885320 1582.0
44.283618200 1615.0
44.305351080 1585.0
44.327083960 1556.0
44.348816840 1571.0
44.370549720 1458.0
44.392282600 1460.0
44.414015480 1461.0
44.435748360 1397.0
44.457481240 1389.0
44.479214120 1416.0
44.500947000 1428.0
44.522679880 1364.0
44.544412760 1307.0
44.566145640 1374.0
44.587878520 1416.0
44.609611400 1349.0
44.631344280 1446.0
44.653077160 1410.0
44.674810040 1364.0
44.696542920 1384.0
44.718275800 1371.0
44.740008680 1339.0
44.761741560 1341.0
44.783474440 1366.0
44.805207320 1371.0
44.826940200 1372.0
44.848673080 1389.0
44.870405960 1368.0
44.892138840 1401.0
44.913871720 1417.0
44.935604600 1367.0
44.957337480 1395.0
44.979070360 1371.0
45.000803240 1420.0
45.022536120 1560.0
45.044269000 1632.0
45.066001880 1701.0
45.087734760 1900.0
45.109467640 2049.0
45.131200520 2035.0
45.152933400 1897.0
45.174666280 1749.0
45.196399160 1718.0
45.218132040 1652.0
45.239864920 1635.0
45.261597800 1554.0
45.283330680 1571.0
45.305063560 1456.0
45.326796440 1298.0
45.348529320 1298.0
45.370262200 1314.0
45.391995080 1300.0
45.413727960 1381.0
45.435460840 1316.0
45.457193720 1235.0
45.478926600 1340.0
45.500659480 1238.0
45.522392360 1261.0
45.544125240 1316.0
45.565858120 1316.0
45.587591000 1301.0
45.609323880 1252.0
45.631056760 1328.0
45.652789640 1320.0
45.674522520 1238.0
45.696255400 1311.0
45.717988280 1363.0
45.739721160 1278.0
45.761454040 1372.0
45.783186920 1441.0
45.804919800 1495.0
45.826652680 1656.0
45.848385560 1666.0
45.870118440 1679.0
45.891851320 1612.0
45.913584200 1617.0
45.935317080 1742.0
45.957049960 1763.0
45.978782840 1715.0
46.000515720 1751.0
46.022248600 1630.0
46.043981480 1570.0
46.065714360 1505.0
46.087447240 1473.0
46.109180120 1458.0
46.130913000 1407.0
46.152645880 1430.0
46.174378760 1351.0
46.196111640 1386.0
46.217844520 1316.0
46.239577400 1374.0
46.261310280 1347.0
46.283043160 1326.0
46.304776040 1368.0
46.326508920 1326.0
46.348241800 1458.0
46.369974680 1464.0
46.391707560 1463.0
46.413440440 1462.0
46.435173320 1575.0
46.456906200 1577.0
46.478639080 1493.0
46.500371960 1576.0
46.522104840 1621.0
46.543837720 1607.0
46.565570600 1490.0
46.587303480 1509.0
46.609036360 1519.0
46.630769240 1524.0
46.652502120 1577.0
46.674235000 1543.0
46.695967880 1580.0
46.717700760 1487.0
46.739433640 1460.0
46.761166520 1459.0
46.782899400 1399.0
46.804632280 1465.0
46.826365160 1434.0
46.848098040 1420.0
46.869830920 1456.0
46.891563800 1450.0
46.913296680 1463.0
46.935029560 1548.0
46.956762440 1528.0
46.978495320 1590.0
47.000228200 1618.0
47.021961080 1752.0
47.043693960 1745.0
47.065426840 1640.0
47.087159720 1588.0
47.108892600 1596.0
47.130625480 1642.0
47.152358360 1673.0
47.174091240 1720.0
47.195824120 1657.0
47.217557000 1663.0
47.239289880 1728.0
47.261022760 1766.0
47.282755640 1834.0
47.304488520 1863.0
47.326221400 1849.0
47.347954280 1842.0
47.369687160 1896.0
47.391420040 1941.0
47.413152920 2117.0
47.434885800 2251.0
47.456618680 2317.0
47.478351560 2448.0
47.500084440 2681.0
47.521817320 2929.0
47.543550200 3286.0
47.565283080 3831.0
47.587015960 4399.0
47.608748840 5511.0
47.630481720 7317.0
47.652214600 9764.0
47.673947480 13199.0
47.695680360 17671.0
47.717413240 21916.0
47.739146120 22624.0
47.760879000 18565.0
47.782611880 13361.0
47.804344760 11483.0
47.826077640 12183.0
47.847810520 13172.0
47.869543400 12371.0
47.891276280 9226.0
47.913009160 5982.0
47.934742040 4330.0
47.956474920 3460.0
47.978207800 3090.0
47.999940680 2786.0
48.021673560 2487.0
48.043406440 2302.0
48.065139320 2167.0
48.086872200 2070.0
48.108605080 1910.0
48.130337960 1932.0
48.152070840 1872.0
48.173803720 1827.0
48.195536600 1756.0
48.217269480 1703.0
48.239002360 1653.0
48.260735240 1651.0
48.282468120 1753.0
48.304201000 1662.0
48.325933880 1582.0
48.347666760 1723.0
48.369399640 1584.0
48.391132520 1572.0
48.412865400 1558.0
48.434598280 1519.0
48.456331160 1510.0
48.478064040 1485.0
48.499796920 1587.0
48.521529800 1497.0
48.543262680 1498.0
48.564995560 1428.0
48.586728440 1444.0
48.608461320 1474.0
48.630194200 1425.0
48.651927080 1356.0
48.673659960 1359.0
48.695392840 1310.0
48.717125720 1335.0
48.738858600 1279.0
48.760591480 1314.0
48.782324360 1325.0
48.804057240 1288.0
48.825790120 1307.0
48.847523000 1315.0
48.869255880 1278.0
48.890988760 1224.0
48.912721640 1214.0
48.934454520 1224.0
48.956187400 1341.0
48.977920280 1251.0
48.999653160 1320.0
49.021386040 1267.0
49.043118920 1384.0
49.064851800 1365.0
49.086584680 1346.0
49.108317560 1375.0
49.130050440 1387.0
49.151783320 1404.0
49.173516200 1443.0
49.195249080 1403.0
49.216981960 1475.0
49.238714840 1475.0
49.260447720 1429.0
49.282180600 1383.0
49.303913480 1383.0
49.325646360 1482.0
49.347379240 1567.0
49.369112120 1647.0
49.390845000 1616.0
49.412577880 1484.0
49.434310760 1325.0
49.456043640 1365.0
49.477776520 1355.0
49.499509400 1428.0
49.521242280 1402.0
49.542975160 1272.0
49.564708040 1310.0
49.586440920 1339.0
49.608173800 1358.0
49.629906680 1320.0
49.651639560 1321.0
49.673372440 1390.0
49.695105320 1320.0
49.716838200 1439.0
49.738571080 1516.0
49.760303960 1479.0
49.782036840 1420.0
49.803769720 1391.0
49.825502600 1424.0
49.847235480 1401.0
49.868968360 1460.0
49.890701240 1508.0
49.912434120 1556.0
49.934167000 1660.0
49.955899880 1776.0
49.977632760 1984.0
49.999365640 2436.0
50.021098520 2803.0
50.042831400 3241.0
50.064564280 3391.0
50.086297160 3157.0
50.108030040 2532.0
50.129762920 2159.0
50.151495800 2246.0
50.173228680 2335.0
50.194961560 2422.0
50.216694440 2176.0
50.238427320 1833.0
50.260160200 1614.0
50.281893080 1429.0
50.303625960 1317.0
50.325358840 1354.0
50.347091720 1323.0
50.368824600 1301.0
50.390557480 1262.0
50.412290360 1246.0
50.434023240 1276.0
50.455756120 1262.0
50.477489000 1293.0
50.499221880 1196.0
50.520954760 1229.0
50.542687640 1178.0
50.564420520 1234.0
50.586153400 1143.0
50.607886280 1150.0
50.629619160 1050.0
50.651352040 1110.0
50.673084920 1090.0
50.694817800 1110.0
50.716550680 1108.0
50.738283560 1090.0
50.760016440 1052.0
50.781749320 1120.0
50.803482200 1129.0
50.825215080 1081.0
50.846947960 1077.0
50.868680840 1091.0
50.890413720 1066.0
50.912146600 1151.0
50.933879480 1075.0
50.955612360 1091.0
50.977345240 1047.0
50.999078120 1059.0
51.020811000 1117.0
51.042543880 1074.0
51.064276760 1149.0
51.086009640 1170.0
51.107742520 1130.0
51.129475400 1140.0
51.151208280 1108.0
51.172941160 1138.0
51.194674040 1206.0
51.216406920 1230.0
51.238139800 1209.0
51.259872680 1257.0
51.281605560 1287.0
51.303338440 1150.0
51.325071320 1300.0
51.346804200 1310.0
51.368537080 1283.0
51.390269960 1290.0
51.412002840 1278.0
51.433735720 1266.0
51.455468600 1216.0
51.477201480 1175.0
51.498934360 1207.0
51.520667240 1203.0
51.542400120 1168.0
51.564133000 1160.0
51.585865880 1194.0
51.607598760 1186.0
51.629331640 1123.0
51.651064520 1095.0
51.672797400 1067.0
51.694530280 1099.0
51.716263160 1194.0
51.737996040 1187.0
51.759728920 1194.0
51.781461800 1151.0
51.803194680 1194.0
51.824927560 1165.0
51.846660440 1084.0
51.868393320 1161.0
51.890126200 1195.0
51.911859080 1136.0
51.933591960 1102.0
51.955324840 1108.0
51.977057720 1126.0
51.998790600 1141.0
52.020523480 1177.0
52.042256360 1180.0
52.063989240 1161.0
52.085722120 1136.0
52.107455000 1107.0
52.129187880 1174.0
52.150920760 1131.0
52.172653640 1120.0
52.194386520 1136.0
52.216119400 1070.0
52.237852280 1135.0
52.259585160 1082.0
52.281318040 1114.0
52.303050920 1078.0
52.324783800 1041.0
52.346516680 1043.0
52.368249560 1073.0
52.389982440 1094.0
52.411715320 1108.0
52.433448200 1082.0
52.455181080 1064.0
52.476913960 1100.0
52.498646840 1083.0
52.520379720 1035.0
52.542112600 1086.0
52.563845480 1048.0
52.585578360 1123.0
52.607311240 1083.0
52.629044120 988.0
52.650777000 1082.0
52.672509880 1084.0
52.694242760 1080.0
52.715975640 1079.0
52.737708520 1091.0
52.759441400 1180.0
52.781174280 1188.0
52.802907160 1179.0
52.824640040 1178.0
52.846372920 1238.0
52.868105800 1138.0
52.889838680 1138.0
52.911571560 1221.0
52.933304440 1195.0
52.955037320 1241.0
52.976770200 1232.0
52.998503080 1282.0
53.020235960 1243.0
53.041968840 1204.0
53.063701720 1232.0
53.085434600 1244.0
53.107167480 1313.0
53.128900360 1364.0
53.150633240 1293.0
53.172366120 1241.0
53.194099000 1287.0
53.215831880 1267.0
53.237564760 1183.0
53.259297640 1291.0
53.281030520 1293.0
53.302763400 1300.0
53.324496280 1335.0
53.346229160 1319.0
53.367962040 1328.0
53.389694920 1344.0
53.411427800 1328.0
53.433160680 1162.0
53.454893560 1208.0
53.476626440 1249.0
53.498359320 1201.0
53.520092200 1253.0
53.541825080 1282.0
53.563557960 1287.0
53.585290840 1275.0
53.607023720 1263.0
53.628756600 1236.0
53.650489480 1229.0
53.672222360 1319.0
53.693955240 1460.0
53.715688120 1637.0
53.737421000 1907.0
53.759153880 2094.0
53.780886760 2278.0
53.802619640 2115.0
53.824352520 1778.0
53.846085400 1645.0
53.867818280 1625.0
53.889551160 1633.0
53.911284040 1682.0
53.933016920 1834.0
53.954749800 1683.0
53.976482680 1369.0
53.998215560 1247.0
54.019948440 1246.0
54.041681320 1301.0
54.063414200 1284.0
54.085147080 1318.0
54.106879960 1321.0
54.128612840 1231.0
54.150345720 1188.0
54.172078600 1151.0
54.193811480 1144.0
54.215544360 1156.0
54.237277240 1163.0
54.259010120 1135.0
54.280743000 1153.0
54.302475880 1149.0
54.324208760 1101.0
54.345941640 1051.0
54.367674520 1084.0
54.389407400 1161.0
54.411140280 1159.0
54.432873160 1080.0
54.454606040 1113.0
54.476338920 1106.0
54.498071800 1126.0
54.519804680 1085.0
54.541537560 1069.0
54.563270440 1092.0
54.585003320 1071.0
54.606736200 1047.0
54.628469080 1081.0
54.650201960 1101.0
54.671934840 985.0
54.693667720 1058.0
54.715400600 1105.0
54.737133480 1061.0
54.758866360 1081.0
54.780599240 1078.0
54.802332120 1065.0
54.824065000 1065.0
54.845797880 1147.0
54.867530760 1127.0
54.889263640 1139.0
54.910996520 1097.0
54.932729400 1087.0
54.954462280 1137.0
54.976195160 1232.0
54.997928040 1398.0
55.019660920 1488.0
55.041393800 1670.0
55.063126680 1691.0
55.084859560 1734.0
55.106592440 1464.0
55.128325320 1358.0
55.150058200 1319.0
55.171791080 1432.0
55.193523960 1426.0
55.215256840 1530.0
55.236989720 1495.0
55.258722600 1372.0
55.280455480 1473.0
55.302188360 1574.0
55.323921240 1393.0
55.345654120 1293.0
55.367387000 1265.0
55.389119880 1214.0
55.410852760 1222.0
55.432585640 1244.0
55.454318520 1263.0
55.476051400 1286.0
55.497784280 1199.0
55.519517160 1110.0
55.541250040 1150.0
55.562982920 1125.0
55.584715800 1147.0
55.606448680 1175.0
55.628181560 1151.0
55.649914440 1179.0
55.671647320 1309.0
55.693380200 1340.0
55.715113080 1397.0
55.736845960 1300.0
55.758578840 1459.0
55.780311720 1575.0
55.802044600 1611.0
55.823777480 1855.0
55.845510360 2256.0
55.867243240 2855.0
55.888976120 3634.0
55.910709000 4464.0
55.932441880 4833.0
55.954174760 4306.0
55.975907640 3032.0
55.997640520 2433.0
56.019373400 2412.0
56.041106280 2741.0
56.062839160 2922.0
56.084572040 3123.0
56.106304920 2635.0
56.128037800 2086.0
56.149770680 1732.0
56.171503560 1467.0
56.193236440 1400.0
56.214969320 1317.0
56.236702200 1237.0
56.258435080 1246.0
56.280167960 1207.0
56.301900840 1251.0
56.323633720 1198.0
56.345366600 1252.0
56.367099480 1251.0
56.388832360 1214.0
56.410565240 1182.0
56.432298120 1253.0
56.454031000 1218.0
56.475763880 1273.0
56.497496760 1290.0
56.519229640 1347.0
56.540962520 1549.0
56.562695400 1661.0
56.584428280 1977.0
56.606161160 2314.0
56.627894040 2589.0
56.649626920 2363.0
56.671359800 2064.0
56.693092680 1759.0
56.714825560 1637.0
56.736558440 1682.0
56.758291320 1745.0
56.780024200 1861.0
56.801757080 1850.0
56.823489960 1553.0
56.845222840 1390.0
56.866955720 1306.0
56.888688600 1262.0
56.910421480 1309.0
56.932154360 1352.0
56.953887240 1252.0
56.975620120 1260.0
56.997353000 1134.0
57.019085880 1113.0
57.040818760 1182.0
57.062551640 1075.0
57.084284520 1130.0
57.106017400 1147.0
57.127750280 1183.0
57.149483160 1097.0
57.171216040 1111.0
57.192948920 1091.0
57.214681800 1136.0
57.236414680 1076.0
57.258147560 1037.0
57.279880440 1021.0
57.301613320 1103.0
57.323346200 1143.0
57.345079080 1074.0
57.366811960 1065.0
57.388544840 1006.0
57.410277720 1020.0
57.432010600 1039.0
57.453743480 1043.0
57.475476360 1026.0
57.497209240 1047.0
57.518942120 968.0
57.540675000 1059.0
57.562407880 972.0
57.584140760 1038.0
57.605873640 1027.0
57.627606520 1035.0
57.649339400 985.0
57.671072280 1060.0
57.692805160 1034.0
57.714538040 1049.0
57.736270920 1059.0
57.758003800 1078.0
57.779736680 1088.0
57.801469560 1077.0
57.823202440 1057.0
57.844935320 1054.0
57.866668200 1034.0
57.888401080 1039.0
57.910133960 977.0
57.931866840 1009.0
57.953599720 955.0
57.975332600 1043.0
57.997065480 1046.0
58.018798360 1029.0
58.040531240 1073.0
58.062264120 1003.0
58.083997000 1038.0
58.105729880 1105.0
58.127462760 1115.0
58.149195640 1101.0
58.170928520 1132.0
58.192661400 1069.0
58.214394280 1031.0
58.236127160 1027.0
58.257860040 1034.0
58.279592920 974.0
58.301325800 1036.0
58.323058680 1016.0
58.344791560 1038.0
58.366524440 1019.0
58.388257320 926.0
58.409990200 959.0
58.431723080 1027.0
58.453455960 925.0
58.475188840 986.0
58.496921720 957.0
58.518654600 890.0
58.540387480 1024.0
58.562120360 1049.0
58.583853240 979.0
58.605586120 1018.0
58.627319000 984.0
58.649051880 1108.0
58.670784760 1111.0
58.692517640 1153.0
58.714250520 1103.0
58.735983400 1208.0
58.757716280 1204.0
58.779449160 1347.0
58.801182040 1373.0
58.822914920 1310.0
58.844647800 1171.0
58.866380680 1168.0
58.888113560 1084.0
58.909846440 1147.0
58.931579320 1213.0
58.953312200 1256.0
58.975045080 1245.0
58.996777960 1311.0
59.018510840 1360.0
59.040243720 1319.0
59.061976600 1224.0
59.083709480 1194.0
59.105442360 1210.0
59.127175240 1195.0
59.148908120 1262.0
59.170641000 1269.0
59.192373880 1230.0
59.214106760 1234.0
59.235839640 1289.0
59.257572520 1276.0
59.279305400 1382.0
59.301038280 1583.0
59.322771160 1887.0
59.344504040 2407.0
59.366236920 2870.0
59.387969800 3382.0
59.409702680 3355.0
59.431435560 2676.0
59.453168440 2019.0
59.474901320 1738.0
59.496634200 1860.0
59.518367080 1988.0
59.540099960 2155.0
59.561832840 2276.0
59.583565720 2002.0
59.605298600 1710.0
59.627031480 1505.0
59.648764360 1324.0
59.670497240 1355.0
59.692230120 1291.0
59.713963000 1196.0
59.735695880 1178.0
59.757428760 1167.0
59.779161640 1101.0
59.800894520 1072.0
59.822627400 1089.0
59.844360280 1054.0
59.866093160 1096.0
59.887826040 1084.0
59.909558920 1008.0
59.931291800 996.0
59.953024680 1049.0
59.974757560 1008.0
59.996490440 990.0
60.018223320 1015.0
60.039956200 1053.0
60.061689080 960.0
60.083421960 1015.0
60.105154840 961.0
60.126887720 943.0
60.148620600 962.0
60.170353480 968.0
60.192086360 989.0
60.213819240 981.0
60.235552120 924.0
60.257285000 977.0
60.279017880 1033.0
60.300750760 986.0
60.322483640 971.0
60.344216520 954.0
60.365949400 927.0
60.387682280 973.0
60.409415160 954.0
60.431148040 947.0
60.452880920 966.0
60.474613800 1035.0
60.496346680 1009.0
60.518079560 971.0
60.539812440 941.0
60.561545320 998.0
60.583278200 948.0
60.605011080 987.0
60.626743960 943.0
60.648476840 1005.0
60.670209720 915.0
60.691942600 980.0
60.713675480 984.0
60.735408360 960.0
60.757141240 950.0
60.778874120 1075.0
60.800607000 1099.0
60.822339880 1066.0
60.844072760 1111.0
60.865805640 1093.0
60.887538520 993.0
60.909271400 970.0
60.931004280 994.0
60.952737160 1017.0
60.974470040 1023.0
60.996202920 964.0
61.017935800 960.0
61.039668680 999.0
61.061401560 936.0
61.083134440 1056.0
61.104867320 1073.0
61.126600200 1013.0
61.148333080 1003.0
61.170065960 1058.0
61.191798840 1060.0
61.213531720 1039.0
61.235264600 1046.0
61.256997480 1095.0
61.278730360 1089.0
61.300463240 1119.0
61.322196120 1239.0
61.343929000 1364.0
61.365661880 1621.0
61.387394760 1804.0
61.409127640 2007.0
61.430860520 1947.0
61.452593400 1607.0
61.474326280 1406.0
61.496059160 1264.0
61.517792040 1380.0
61.539524920 1343.0
61.561257800 1494.0
61.582990680 1503.0
61.604723560 1449.0
61.626456440 1312.0
61.648189320 1168.0
61.669922200 1065.0
61.691655080 1011.0
61.713387960 1013.0
61.735120840 1010.0
61.756853720 1055.0
61.778586600 983.0
61.800319480 1018.0
61.822052360 991.0
61.843785240 980.0
61.865518120 972.0
61.887251000 997.0
61.908983880 964.0
61.930716760 912.0
61.952449640 1001.0
61.974182520 945.0
61.995915400 953.0
62.017648280 1009.0
62.039381160 967.0
62.061114040 941.0
62.082846920 1000.0
62.104579800 982.0
62.126312680 1019.0
62.148045560 992.0
62.169778440 1003.0
62.191511320 1009.0
62.213244200 1020.0
62.234977080 1095.0
62.256709960 1067.0
62.278442840 1060.0
62.300175720 1256.0
62.321908600 1203.0
62.343641480 1397.0
62.365374360 1634.0
62.387107240 1570.0
62.408840120 1417.0
62.430573000 1235.0
62.452305880 1199.0
62.474038760 1155.0
62.495771640 1253.0
62.517504520 1297.0
62.539237400 1447.0
62.560970280 1426.0
62.582703160 1420.0
62.604436040 1417.0
62.626168920 1331.0
62.647901800 1231.0
62.669634680 1137.0
62.691367560 1074.0
62.713100440 1100.0
62.734833320 1088.0
62.756566200 1088.0
62.778299080 1062.0
62.800031960 1161.0
62.821764840 1023.0
62.843497720 981.0
62.865230600 953.0
62.886963480 962.0
62.908696360 999.0
62.930429240 975.0
62.952162120 1007.0
62.973895000 1003.0
62.995627880 1006.0
63.017360760 968.0
63.039093640 969.0
63.060826520 997.0
63.082559400 1009.0
63.104292280 896.0
63.126025160 1021.0
63.147758040 950.0
63.169490920 994.0
63.191223800 1002.0
63.212956680 1037.0
63.234689560 986.0
63.256422440 1037.0
63.278155320 994.0
63.299888200 967.0
63.321621080 993.0
63.343353960 965.0
63.365086840 925.0
63.386819720 978.0
63.408552600 888.0
63.430285480 976.0
63.452018360 922.0
63.473751240 951.0
63.495484120 906.0
63.517217000 1008.0
63.538949880 960.0
63.560682760 917.0
63.582415640 962.0
63.604148520 946.0
63.625881400 922.0
63.647614280 922.0
63.669347160 959.0
63.691080040 909.0
63.712812920 872.0
63.734545800 877.0
63.756278680 945.0
63.778011560 910.0
63.799744440 949.0
63.821477320 895.0
63.843210200 940.0
63.864943080 907.0
63.886675960 888.0
63.908408840 938.0
63.930141720 928.0
63.951874600 949.0
63.973607480 923.0
63.995340360 987.0
64.017073240 1058.0
64.038806120 1030.0
64.060539000 954.0
64.082271880 971.0
64.104004760 961.0
64.125737640 941.0
64.147470520 1010.0
64.169203400 983.0
64.190936280 915.0
64.212669160 992.0
64.234402040 996.0
64.256134920 999.0
64.277867800 1024.0
64.299600680 999.0
64.321333560 1081.0
64.343066440 1059.0
64.364799320 1056.0
64.386532200 1026.0
64.408265080 953.0
64.429997960 998.0
64.451730840 999.0
64.473463720 1052.0
64.495196600 1063.0
64.516929480 1169.0
64.538662360 1092.0
64.560395240 1159.0
64.582128120 1123.0
64.603861000 1237.0
64.625593880 1319.0
64.647326760 1489.0
64.669059640 1727.0
64.690792520 1962.0
64.712525400 2098.0
64.734258280 1735.0
64.755991160 1433.0
64.777724040 1266.0
64.799456920 1233.0
64.821189800 1225.0
64.842922680 1373.0
64.864655560 1459.0
64.886388440 1501.0
64.908121320 1363.0
64.929854200 1247.0
64.951587080 1153.0
64.973319960 1022.0
64.995052840 1042.0
65.016785720 974.0
65.038518600 1006.0
65.060251480 957.0
65.081984360 1017.0
65.103717240 1034.0
65.125450120 991.0
65.147183000 986.0
65.168915880 968.0
65.190648760 987.0
65.212381640 966.0
65.234114520 966.0
65.255847400 972.0
65.277580280 954.0
65.299313160 893.0
65.321046040 926.0
65.342778920 934.0
65.364511800 969.0
65.386244680 982.0
65.407977560 873.0
65.429710440 936.0
65.451443320 956.0
65.473176200 982.0
65.494909080 974.0
65.516641960 1004.0
65.538374840 1008.0
65.560107720 928.0
65.581840600 960.0
65.603573480 925.0
65.625306360 919.0
65.647039240 985.0
65.668772120 947.0
65.690505000 979.0
65.712237880 962.0
65.733970760 954.0
65.755703640 972.0
65.777436520 1082.0
65.799169400 1064.0
65.820902280 1162.0
65.842635160 1232.0
65.864368040 1179.0
65.886100920 1173.0
65.907833800 1037.0
65.929566680 988.0
65.951299560 1060.0
65.973032440 1043.0
65.994765320 1141.0
66.016498200 1116.0
66.038231080 1188.0
66.059963960 1156.0
66.081696840 1134.0
66.103429720 1058.0
66.125162600 1084.0
66.146895480 1014.0
66.168628360 1016.0
66.190361240 1066.0
66.212094120 1170.0
66.233827000 1158.0
66.255559880 1208.0
66.277292760 1257.0
66.299025640 1227.0
66.320758520 1226.0
66.342491400 1190.0
66.364224280 1204.0
66.385957160 1240.0
66.407690040 1245.0
66.429422920 1356.0
66.451155800 1417.0
66.472888680 1531.0
66.494621560 1754.0
66.516354440 1894.0
66.538087320 2332.0
66.559820200 2950.0
66.581553080 4030.0
66.603285960 5207.0
66.625018840 6275.0
66.646751720 6192.0
66.668484600 4554.0
66.690217480 3280.0
66.711950360 2774.0
66.733683240 2472.0
66.755416120 2718.0
66.777149000 3057.0
66.798881880 3712.0
66.820614760 3863.0
66.842347640 3425.0
66.864080520 2582.0
66.885813400 1985.0
66.907546280 1703.0
66.929279160 1476.0
66.951012040 1318.0
66.972744920 1302.0
66.994477800 1266.0
67.016210680 1253.0
67.037943560 1230.0
67.059676440 1083.0
67.081409320 1144.0
67.103142200 1141.0
67.124875080 1054.0
67.146607960 1021.0
67.168340840 1048.0
67.190073720 1078.0
67.211806600 1038.0
67.233539480 1025.0
67.255272360 991.0
67.277005240 1057.0
67.298738120 994.0
67.320471000 1011.0
67.342203880 1016.0
67.363936760 1054.0
67.385669640 995.0
67.407402520 977.0
67.429135400 969.0
67.450868280 1066.0
67.472601160 981.0
67.494334040 1011.0
67.516066920 1023.0
67.537799800 1112.0
67.559532680 1126.0
67.581265560 1042.0
67.602998440 1008.0
67.624731320 984.0
67.646464200 1030.0
67.668197080 1021.0
67.689929960 1010.0
67.711662840 1109.0
67.733395720 1116.0
67.755128600 1177.0
67.776861480 1087.0
67.798594360 1001.0
67.820327240 942.0
67.842060120 943.0
67.863793000 980.0
67.885525880 1006.0
67.907258760 995.0
67.928991640 1076.0
67.950724520 1131.0
67.972457400 1003.0
67.994190280 1044.0
68.015923160 1004.0
68.037656040 979.0
68.059388920 997.0
68.081121800 946.0
68.102854680 928.0
68.124587560 962.0
68.146320440 941.0
68.168053320 892.0
68.189786200 916.0
68.211519080 962.0
68.233251960 978.0
68.254984840 934.0
68.276717720 905.0
68.298450600 935.0
68.320183480 911.0
68.341916360 959.0
68.363649240 938.0
68.385382120 924.0
68.407115000 902.0
68.428847880 895.0
68.450580760 927.0
68.472313640 946.0
68.494046520 894.0
68.515779400 887.0
68.537512280 872.0
68.559245160 878.0
68.580978040 901.0
68.602710920 890.0
68.624443800 888.0
68.646176680 952.0
68.667909560 906.0
68.689642440 903.0
68.711375320 941.0
68.733108200 918.0
68.754841080 907.0
68.776573960 1004.0
68.798306840 997.0
68.820039720 998.0
68.841772600 925.0
68.863505480 883.0
68.885238360 907.0
68.906971240 917.0
68.928704120 889.0
68.950437000 960.0
68.972169880 980.0
68.993902760 1037.0
69.015635640 934.0
69.037368520 925.0
69.059101400 959.0
69.080834280 949.0
69.102567160 864.0
69.124300040 902.0
69.146032920 878.0
69.167765800 970.0
69.189498680 1022.0
69.211231560 1002.0
69.232964440 1047.0
69.254697320 1044.0
69.276430200 984.0
69.298163080 993.0
69.319895960 1013.0
69.341628840 1095.0
69.363361720 1124.0
69.385094600 1206.0
69.406827480 1275.0
69.428560360 1430.0
69.450293240 1446.0
69.472026120 1324.0
69.493759000 1342.0
69.515491880 1218.0
69.537224760 1206.0
69.558957640 1203.0
69.580690520 1306.0
69.602423400 1381.0
69.624156280 1530.0
69.645889160 1631.0
69.667622040 1775.0
69.689354920 2092.0
69.711087800 2673.0
69.732820680 3550.0
69.754553560 4701.0
69.776286440 5773.0
69.798019320 5665.0
69.819752200 4321.0
69.841485080 2998.0
69.863217960 2371.0
69.884950840 2101.0
69.906683720 2121.0
69.928416600 2501.0
69.950149480 2872.0
69.971882360 3485.0
69.993615240 3501.0
70.015348120 2862.0
70.037081000 2117.0
70.058813880 1710.0
70.080546760 1447.0
70.102279640 1297.0
70.124012520 1258.0
70.145745400 1155.0
70.167478280 1047.0
70.189211160 1067.0
70.210944040 1077.0
70.232676920 1062.0
70.254409800 1041.0
70.276142680 1015.0
70.297875560 1005.0
70.319608440 982.0
70.341341320 986.0
70.363074200 941.0
70.384807080 937.0
70.406539960 999.0
70.428272840 969.0
70.450005720 884.0
70.471738600 905.0
70.493471480 905.0
70.515204360 960.0
70.536937240 891.0
70.558670120 985.0
70.580403000 939.0
70.602135880 944.0
70.623868760 849.0
70.645601640 914.0
70.667334520 945.0
70.689067400 978.0
70.710800280 924.0
70.732533160 925.0
70.754266040 889.0
70.775998920 1009.0
70.797731800 930.0
70.819464680 967.0
70.841197560 980.0
70.862930440 932.0
70.884663320 952.0
70.906396200 942.0
70.928129080 939.0
70.949861960 940.0
70.971594840 931.0
70.993327720 942.0
71.015060600 894.0
71.036793480 919.0
71.058526360 978.0
71.080259240 996.0
71.101992120 1007.0
71.123725000 999.0
71.145457880 973.0
71.167190760 917.0
71.188923640 920.0
71.210656520 954.0
71.232389400 948.0
71.254122280 891.0
71.275855160 923.0
71.297588040 911.0
71.319320920 959.0
71.341053800 875.0
71.362786680 889.0
71.384519560 830.0
71.406252440 863.0
71.427985320 939.0
71.449718200 904.0
71.471451080 858.0
71.493183960 922.0
71.514916840 893.0
71.536649720 948.0
71.558382600 893.0
71.580115480 889.0
71.601848360 857.0
71.623581240 898.0
71.645314120 890.0
71.667047000 892.0
71.688779880 911.0
71.710512760 861.0
71.732245640 874.0
71.753978520 838.0
71.775711400 835.0
71.797444280 892.0
71.819177160 866.0
71.840910040 855.0
71.862642920 890.0
71.884375800 852.0
71.906108680 893.0
71.927841560 913.0
71.949574440 896.0
71.971307320 858.0
71.993040200 893.0
72.014773080 861.0
72.036505960 909.0
72.058238840 902.0
72.079971720 927.0
72.101704600 921.0
72.123437480 957.0
72.145170360 913.0
72.166903240 843.0
72.188636120 846.0
72.210369000 898.0
72.232101880 872.0
72.253834760 911.0
72.275567640 896.0
72.297300520 935.0
72.319033400 916.0
72.340766280 945.0
72.362499160 927.0
72.384232040 914.0
72.405964920 894.0
72.427697800 889.0
72.449430680 937.0
72.471163560 952.0
72.492896440 977.0
72.514629320 976.0
72.536362200 969.0
72.558095080 917.0
72.579827960 929.0
72.601560840 893.0
72.623293720 889.0
72.645026600 953.0
72.666759480 913.0
72.688492360 892.0
72.710225240 947.0
72.731958120 1013.0
72.753691000 982.0
72.775423880 956.0
72.797156760 880.0
72.818889640 848.0
72.840622520 926.0
72.862355400 860.0
72.884088280 909.0
72.905821160 888.0
72.927554040 887.0
72.949286920 933.0
72.971019800 877.0
72.992752680 930.0
73.014485560 940.0
73.036218440 878.0
73.057951320 883.0
73.079684200 849.0
73.101417080 844.0
73.123149960 860.0
73.144882840 871.0
73.166615720 897.0
73.188348600 884.0
73.210081480 904.0
73.231814360 897.0
73.253547240 884.0
73.275280120 875.0
73.297013000 982.0
73.318745880 970.0
73.340478760 993.0
73.362211640 999.0
73.383944520 976.0
73.405677400 998.0
73.427410280 907.0
73.449143160 943.0
73.470876040 947.0
73.492608920 903.0
73.514341800 953.0
73.536074680 908.0
73.557807560 928.0
73.579540440 982.0
73.601273320 870.0
73.623006200 949.0
73.644739080 863.0
73.666471960 923.0
73.688204840 936.0
73.709937720 928.0
73.731670600 833.0
73.753403480 889.0
73.775136360 903.0
73.796869240 922.0
73.818602120 934.0
73.840335000 866.0
73.862067880 878.0
73.883800760 896.0
73.905533640 892.0
73.927266520 845.0
73.948999400 790.0
73.970732280 868.0
73.992465160 855.0
74.014198040 864.0
74.035930920 855.0
74.057663800 884.0
74.079396680 855.0
74.101129560 920.0
74.122862440 866.0
74.144595320 902.0
74.166328200 960.0
74.188061080 952.0
74.209793960 995.0
74.231526840 933.0
74.253259720 886.0
74.274992600 927.0
74.296725480 946.0
74.318458360 1041.0
74.340191240 1081.0
74.361924120 1139.0
74.383657000 1155.0
74.405389880 1000.0
74.427122760 1046.0
74.448855640 955.0
74.470588520 941.0
74.492321400 928.0
74.514054280 986.0
74.535787160 986.0
74.557520040 935.0
74.579252920 1033.0
74.600985800 1066.0
74.622718680 1091.0
74.644451560 1184.0
74.666184440 1234.0
74.687917320 1328.0
74.709650200 1400.0
74.731383080 1368.0
74.753115960 1103.0
74.774848840 967.0
74.796581720 1007.0
74.818314600 1001.0
74.840047480 978.0
74.861780360 980.0
74.883513240 1038.0
74.905246120 1122.0
74.926979000 1136.0
74.948711880 1114.0
74.970444760 1035.0
74.992177640 937.0
75.013910520 943.0
75.035643400 960.0
75.057376280 933.0
75.079109160 935.0
75.100842040 917.0
75.122574920 897.0
75.144307800 913.0
75.166040680 861.0
75.187773560 856.0
75.209506440 866.0
75.231239320 892.0
75.252972200 941.0
75.274705080 901.0
75.296437960 920.0
75.318170840 880.0
75.339903720 864.0
75.361636600 828.0
75.383369480 826.0
75.405102360 828.0
75.426835240 885.0
75.448568120 885.0
75.470301000 931.0
75.492033880 976.0
75.513766760 865.0
75.535499640 889.0
75.557232520 926.0
75.578965400 913.0
75.600698280 905.0
75.622431160 882.0
75.644164040 944.0
75.665896920 880.0
75.687629800 873.0
75.709362680 904.0
75.731095560 876.0
75.752828440 919.0
75.774561320 926.0
75.796294200 925.0
75.818027080 910.0
75.839759960 861.0
75.861492840 888.0
75.883225720 932.0
75.904958600 914.0
75.926691480 903.0
75.948424360 867.0
75.970157240 893.0
75.991890120 925.0
76.013623000 1001.0
76.035355880 938.0
76.057088760 897.0
76.078821640 939.0
76.100554520 909.0
76.122287400 904.0
76.144020280 953.0
76.165753160 958.0
76.187486040 965.0
76.209218920 989.0
76.230951800 1035.0
76.252684680 1089.0
76.274417560 1008.0
76.296150440 1059.0
76.317883320 1125.0
76.339616200 1095.0
76.361349080 1184.0
76.383081960 1269.0
76.404814840 1416.0
76.426547720 1584.0
76.448280600 1905.0
76.470013480 2374.0
76.491746360 3197.0
76.513479240 3652.0
76.535212120 3504.0
76.556945000 2885.0
76.578677880 2202.0
76.600410760 1845.0
76.622143640 1562.0
76.643876520 1638.0
76.665609400 1577.0
76.687342280 1788.0
76.709075160 2109.0
76.730808040 2295.0
76.752540920 2378.0
76.774273800 2133.0
76.796006680 1717.0
76.817739560 1508.0
76.839472440 1367.0
76.861205320 1172.0
76.882938200 1117.0
76.904671080 1125.0
76.926403960 1107.0
76.948136840 1085.0
76.969869720 1023.0
76.991602600 1024.0
77.013335480 998.0
77.035068360 1058.0
77.056801240 1040.0
77.078534120 1204.0
77.100267000 1159.0
77.121999880 1245.0
77.143732760 1224.0
77.165465640 1092.0
77.187198520 1030.0
77.208931400 1016.0
77.230664280 1038.0
77.252397160 990.0
77.274130040 1010.0
77.295862920 1001.0
77.317595800 1083.0
77.339328680 1051.0
77.361061560 1128.0
77.382794440 1132.0
77.404527320 989.0
77.426260200 1044.0
77.447993080 924.0
77.469725960 1002.0
77.491458840 976.0
77.513191720 933.0
77.534924600 968.0
77.556657480 1111.0
77.578390360 1094.0
77.600123240 1084.0
77.621856120 1052.0
77.643589000 994.0
77.665321880 961.0
77.687054760 953.0
77.708787640 927.0
77.730520520 916.0
77.752253400 931.0
77.773986280 988.0
77.795719160 951.0
77.817452040 948.0
77.839184920 955.0
77.860917800 876.0
77.882650680 926.0
77.904383560 848.0
77.926116440 865.0
77.947849320 779.0
77.969582200 836.0
77.991315080 826.0
78.013047960 917.0
78.034780840 856.0
78.056513720 857.0
78.078246600 828.0
78.099979480 812.0
78.121712360 852.0
78.143445240 804.0
78.165178120 807.0
78.186911000 816.0
78.208643880 818.0
78.230376760 872.0
78.252109640 862.0
78.273842520 803.0
78.295575400 842.0
78.317308280 766.0
78.339041160 834.0
78.360774040 795.0
78.382506920 870.0
78.404239800 863.0
78.425972680 829.0
78.447705560 808.0
78.469438440 835.0
78.491171320 810.0
78.512904200 907.0
78.534637080 833.0
78.556369960 862.0
78.578102840 829.0
78.599835720 877.0
78.621568600 851.0
78.643301480 895.0
78.665034360 878.0
78.686767240 880.0
78.708500120 831.0
78.730233000 893.0
78.751965880 905.0
78.773698760 879.0
78.795431640 954.0
78.817164520 931.0
78.838897400 1007.0
78.860630280 947.0
78.882363160 948.0
78.904096040 971.0
78.925828920 940.0
78.947561800 1046.0
78.969294680 1047.0
78.991027560 1027.0
79.012760440 1011.0
79.034493320 969.0
79.056226200 867.0
79.077959080 952.0
79.099691960 891.0
79.121424840 948.0
79.143157720 1038.0
79.164890600 1003.0
79.186623480 1003.0
79.208356360 1028.0
79.230089240 1017.0
79.251822120 998.0
79.273555000 1052.0
79.295287880 1068.0
79.317020760 1021.0
79.338753640 1080.0
79.360486520 1175.0
79.382219400 1243.0
79.403952280 1380.0
79.425685160 1668.0
79.447418040 1965.0
79.469150920 2502.0
79.490883800 3190.0
79.512616680 3608.0
79.534349560 3351.0
79.556082440 2661.0
79.577815320 1919.0
79.599548200 1692.0
79.621281080 1548.0
79.643013960 1417.0
79.664746840 1524.0
79.686479720 1678.0
79.708212600 1852.0
79.729945480 2201.0
79.751678360 2335.0
79.773411240 2139.0
79.795144120 1848.0
79.816877000 1432.0
79.838609880 1277.0
79.860342760 1204.0
79.882075640 1090.0
79.903808520 1096.0
79.925541400 961.0
79.947274280 970.0
79.969007160 982.0
79.990740040 940.0
80.012472920 973.0
80.034205800 921.0
80.055938680 931.0
80.077671560 866.0
80.099404440 835.0
80.121137320 930.0
80.142870200 883.0
80.164603080 855.0
80.186335960 879.0
80.208068840 889.0
80.229801720 940.0
80.251534600 863.0
80.273267480 888.0
80.295000360 892.0
80.316733240 891.0
80.338466120 881.0
80.360199000 812.0
80.381931880 835.0
80.403664760 864.0
80.425397640 817.0
80.447130520 746.0
80.468863400 832.0
80.490596280 842.0
80.512329160 795.0
80.534062040 843.0
80.555794920 828.0
80.577527800 865.0
80.599260680 879.0
80.620993560 872.0
80.642726440 794.0
80.664459320 810.0
80.686192200 863.0
80.707925080 889.0
80.729657960 851.0
80.751390840 936.0
80.773123720 938.0
80.794856600 903.0
80.816589480 849.0
80.838322360 888.0
80.860055240 876.0
80.881788120 901.0
80.903521000 890.0
80.925253880 903.0
80.946986760 902.0
80.968719640 889.0
80.990452520 904.0
81.012185400 934.0
81.033918280 880.0
81.055651160 907.0
81.077384040 916.0
81.099116920 911.0
81.120849800 954.0
81.142582680 860.0
81.164315560 905.0
81.186048440 894.0
81.207781320 947.0
81.229514200 1019.0
81.251247080 1104.0
81.272979960 1230.0
81.294712840 1277.0
81.316445720 1240.0
81.338178600 1105.0
81.359911480 1057.0
81.381644360 893.0
81.403377240 995.0
81.425110120 924.0
81.446843000 906.0
81.468575880 961.0
81.490308760 968.0
81.512041640 1054.0
81.533774520 1023.0
81.555507400 1028.0
81.577240280 967.0
81.598973160 931.0
81.620706040 910.0
81.642438920 814.0
81.664171800 833.0
81.685904680 878.0
81.707637560 878.0
81.729370440 819.0
81.751103320 845.0
81.772836200 903.0
81.794569080 836.0
81.816301960 880.0
81.838034840 811.0
81.859767720 890.0
81.881500600 824.0
81.903233480 821.0
81.924966360 848.0
81.946699240 824.0
81.968432120 845.0
81.990165000 858.0
82.011897880 813.0
82.033630760 882.0
82.055363640 898.0
82.077096520 857.0
82.098829400 877.0
82.120562280 923.0
82.142295160 979.0
82.164028040 911.0
82.185760920 894.0
82.207493800 867.0
82.229226680 832.0
82.250959560 895.0
82.272692440 900.0
82.294425320 816.0
82.316158200 920.0
82.337891080 965.0
82.359623960 875.0
82.381356840 866.0
82.403089720 886.0
82.424822600 909.0
82.446555480 880.0
82.468288360 839.0
82.490021240 855.0
82.511754120 780.0
82.533487000 824.0
82.555219880 834.0
82.576952760 864.0
82.598685640 859.0
82.620418520 798.0
82.642151400 796.0
82.663884280 839.0
82.685617160 850.0
82.707350040 813.0
82.729082920 812.0
82.750815800 791.0
82.772548680 828.0
82.794281560 852.0
82.816014440 824.0
82.837747320 827.0
82.859480200 867.0
82.881213080 798.0
82.902945960 734.0
82.924678840 776.0
82.946411720 841.0
82.968144600 854.0
82.989877480 840.0
83.011610360 828.0
83.033343240 824.0
83.055076120 797.0
83.076809000 775.0
83.098541880 810.0
83.120274760 788.0
83.142007640 808.0
83.163740520 762.0
83.185473400 790.0
83.207206280 799.0
83.228939160 780.0
83.250672040 754.0
83.272404920 784.0
83.294137800 744.0
83.315870680 802.0
83.337603560 753.0
83.359336440 782.0
83.381069320 785.0
83.402802200 791.0
83.424535080 809.0
83.446267960 812.0
83.468000840 785.0
83.489733720 736.0
83.511466600 844.0
83.533199480 797.0
83.554932360 746.0
83.576665240 765.0
83.598398120 825.0
83.620131000 804.0
83.641863880 798.0
83.663596760 768.0
83.685329640 876.0
83.707062520 901.0
83.728795400 816.0
83.750528280 784.0
83.772261160 866.0
83.793994040 860.0
83.815726920 827.0
83.837459800 825.0
83.859192680 814.0
83.880925560 899.0
83.902658440 851.0
83.924391320 881.0
83.946124200 978.0
83.967857080 901.0
83.989589960 889.0
84.011322840 855.0
84.033055720 809.0
84.054788600 835.0
84.076521480 834.0
84.098254360 822.0
84.119987240 876.0
84.141720120 862.0
84.163453000 870.0
84.185185880 895.0
84.206918760 916.0
84.228651640 901.0
84.250384520 921.0
84.272117400 893.0
84.293850280 818.0
84.315583160 815.0
84.337316040 820.0
84.359048920 787.0
84.380781800 822.0
84.402514680 751.0
84.424247560 826.0
84.445980440 799.0
84.467713320 823.0
84.489446200 838.0
84.511179080 857.0
84.532911960 829.0
84.554644840 794.0
84.576377720 840.0
84.598110600 816.0
84.619843480 801.0
84.641576360 778.0
84.663309240 872.0
84.685042120 836.0
84.706775000 792.0
84.728507880 761.0
84.750240760 786.0
84.771973640 758.0
84.793706520 771.0
84.815439400 785.0
84.837172280 793.0
84.858905160 763.0
84.880638040 824.0
84.902370920 801.0
84.924103800 764.0
84.945836680 754.0
84.967569560 841.0
84.989302440 818.0
85.011035320 781.0
85.032768200 785.0
85.054501080 797.0
85.076233960 840.0
85.097966840 796.0
85.119699720 851.0
85.141432600 771.0
85.163165480 841.0
85.184898360 789.0
85.206631240 852.0
85.228364120 853.0
85.250097000 885.0
85.271829880 902.0
85.293562760 930.0
85.315295640 874.0
85.337028520 920.0
85.358761400 899.0
85.380494280 879.0
85.402227160 874.0
85.423960040 931.0
85.445692920 966.0
85.467425800 1054.0
85.489158680 1077.0
85.510891560 1058.0
85.532624440 1003.0
85.554357320 936.0
85.576090200 971.0
85.597823080 922.0
85.619555960 947.0
85.641288840 871.0
85.663021720 903.0
85.684754600 919.0
85.706487480 994.0
85.728220360 1104.0
85.749953240 1039.0
85.771686120 1051.0
85.793419000 1003.0
85.815151880 1053.0
85.836884760 1037.0
85.858617640 1072.0
85.880350520 1157.0
85.902083400 1217.0
85.923816280 1409.0
85.945549160 1730.0
85.967282040 1970.0
85.989014920 2326.0
86.010747800 2444.0
86.032480680 2275.0
86.054213560 1881.0
86.075946440 1492.0
86.097679320 1327.0
86.119412200 1189.0
86.141145080 1118.0
86.162877960 1198.0
86.184610840 1195.0
86.206343720 1332.0
86.228076600 1414.0
86.249809480 1612.0
86.271542360 1710.0
86.293275240 1582.0
86.315008120 1475.0
86.336741000 1253.0
86.358473880 1120.0
86.380206760 1008.0
86.401939640 1005.0
86.423672520 951.0
86.445405400 873.0
86.467138280 902.0
86.488871160 898.0
86.510604040 902.0
86.532336920 797.0
86.554069800 886.0
86.575802680 848.0
86.597535560 870.0
86.619268440 878.0
86.641001320 818.0
86.662734200 839.0
86.684467080 842.0
86.706199960 869.0
86.727932840 861.0
86.749665720 833.0
86.771398600 824.0
86.793131480 796.0
86.814864360 854.0
86.836597240 806.0
86.858330120 818.0
86.880063000 789.0
86.901795880 835.0
86.923528760 864.0
86.945261640 808.0
86.966994520 881.0
86.988727400 877.0
87.010460280 943.0
87.032193160 947.0
87.053926040 892.0
87.075658920 902.0
87.097391800 870.0
87.119124680 906.0
87.140857560 792.0
87.162590440 810.0
87.184323320 847.0
87.206056200 817.0
87.227789080 811.0
87.249521960 823.0
87.271254840 805.0
87.292987720 860.0
87.314720600 895.0
87.336453480 856.0
87.358186360 822.0
87.379919240 784.0
87.401652120 783.0
87.423385000 803.0
87.445117880 831.0
87.466850760 819.0
87.488583640 726.0
87.510316520 748.0
87.532049400 801.0
87.553782280 789.0
87.575515160 808.0
87.597248040 761.0
87.618980920 773.0
87.640713800 842.0
87.662446680 809.0
87.684179560 790.0
87.705912440 854.0
87.727645320 772.0
87.749378200 842.0
87.771111080 814.0
87.792843960 838.0
87.814576840 763.0
87.836309720 805.0
87.858042600 796.0
87.879775480 801.0
87.901508360 772.0
87.923241240 817.0
87.944974120 821.0
87.966707000 832.0
87.988439880 870.0
88.010172760 859.0
88.031905640 799.0
88.053638520 841.0
88.075371400 805.0
88.097104280 819.0
88.118837160 841.0
88.140570040 863.0
88.162302920 818.0
88.184035800 770.0
88.205768680 812.0
88.227501560 829.0
88.249234440 854.0
88.270967320 835.0
88.292700200 903.0
88.314433080 836.0
88.336165960 855.0
88.357898840 903.0
88.379631720 915.0
88.401364600 937.0
88.423097480 963.0
88.444830360 925.0
88.466563240 1002.0
88.488296120 948.0
88.510029000 997.0
88.531761880 973.0
88.553494760 977.0
88.575227640 1082.0
88.596960520 1121.0
88.618693400 1085.0
88.640426280 1108.0
88.662159160 1133.0
88.683892040 1080.0
88.705624920 1120.0
88.727357800 1175.0
88.749090680 1163.0
88.770823560 1272.0
88.792556440 1342.0
88.814289320 1528.0
88.836022200 1775.0
88.857755080 2038.0
88.879487960 2672.0
88.901220840 3378.0
88.922953720 4286.0
88.944686600 4575.0
88.966419480 4068.0
88.988152360 3027.0
89.009885240 2285.0
89.031618120 1887.0
89.053351000 1613.0
89.075083880 1524.0
89.096816760 1555.0
89.118549640 1609.0
89.140282520 1782.0
89.162015400 1968.0
89.183748280 2351.0
89.205481160 2754.0
89.227214040 2884.0
89.248946920 2434.0
89.270679800 2003.0
89.292412680 1649.0
89.314145560 1334.0
89.335878440 1194.0
89.357611320 1140.0
89.379344200 1016.0
89.401077080 1000.0
89.422809960 1033.0
89.444542840 958.0
89.466275720 942.0
89.488008600 981.0
89.509741480 967.0
89.531474360 955.0
89.553207240 850.0
89.574940120 883.0
89.596673000 887.0
89.618405880 786.0
89.640138760 856.0
89.661871640 833.0
89.683604520 806.0
89.705337400 874.0
89.727070280 836.0
89.748803160 842.0
89.770536040 809.0
89.792268920 730.0
89.814001800 831.0
89.835734680 805.0
89.857467560 812.0
89.879200440 833.0
