10.010866440 5986.0
10.032599320 5971.0
10.054332200 5857.0
10.076065080 5968.0
10.097797960 6040.0
10.119530840 5825.0
10.141263720 5891.0
10.162996600 5923.0
10.184729480 5883.0
10.206462360 5794.0
10.228195240 5851.0
10.249928120 5866.0
10.271661000 6014.0
10.293393880 5967.0
10.315126760 5742.0
10.336859640 5909.0
10.358592520 6070.0
10.380325400 5746.0
10.402058280 5975.0
10.423791160 5859.0
10.445524040 5826.0
10.467256920 5953.0
10.488989800 6215.0
10.510722680 5840.0
10.532455560 5970.0
10.554188440 5870.0
10.575921320 5981.0
10.597654200 5901.0
10.619387080 5822.0
10.641119960 5947.0
10.662852840 5859.0
10.684585720 6040.0
10.706318600 5881.0
10.728051480 6047.0
10.749784360 5952.0
10.771517240 6006.0
10.793250120 6057.0
10.814983000 5963.0
10.836715880 5982.0
10.858448760 5916.0
10.880181640 5967.0
10.901914520 5960.0
10.923647400 6116.0
10.945380280 6033.0
10.967113160 6065.0
10.988846040 6043.0
11.010578920 6150.0
11.032311800 5938.0
11.054044680 5988.0
11.075777560 6076.0
11.097510440 5913.0
11.119243320 5938.0
11.140976200 6130.0
11.162709080 6026.0
11.184441960 5982.0
11.206174840 5971.0
11.227907720 6061.0
11.249640600 5996.0
11.271373480 6120.0
11.293106360 6028.0
11.314839240 6060.0
11.336572120 6209.0
11.358305000 6049.0
11.380037880 6019.0
11.401770760 6082.0
11.423503640 5905.0
11.445236520 6082.0
11.466969400 6158.0
11.488702280 6151.0
11.510435160 6053.0
11.532168040 6245.0
11.553900920 6139.0
11.575633800 6094.0
11.597366680 6060.0
11.619099560 6107.0
11.640832440 5990.0
11.662565320 6086.0
11.684298200 6015.0
11.706031080 6173.0
11.727763960 6195.0
11.749496840 6172.0
11.771229720 6255.0
11.792962600 6119.0
11.814695480 6078.0
11.836428360 5942.0
11.858161240 6087.0
11.879894120 6124.0
11.901627000 6106.0
11.923359880 6192.0
11.945092760 6117.0
11.966825640 6112.0
11.988558520 6183.0
12.010291400 6153.0
12.032024280 6185.0
12.053757160 6294.0
12.075490040 6036.0
12.097222920 6270.0
12.118955800 6224.0
12.140688680 6131.0
12.162421560 6235.0
12.184154440 6207.0
12.205887320 6133.0
12.227620200 6039.0
12.249353080 6111.0
12.271085960 6044.0
12.292818840 6335.0
12.314551720 6286.0
12.336284600 6054.0
12.358017480 6059.0
12.379750360 6107.0
12.401483240 6211.0
12.423216120 6230.0
12.444949000 6023.0
12.466681880 6107.0
12.488414760 6010.0
12.510147640 6193.0
12.531880520 6284.0
12.553613400 6175.0
12.575346280 6161.0
12.597079160 6184.0
12.618812040 6249.0
12.640544920 6302.0
12.662277800 6200.0
12.684010680 6332.0
12.705743560 6340.0
12.727476440 6167.0
12.749209320 6272.0
12.770942200 6276.0
12.792675080 6223.0
12.814407960 6145.0
12.836140840 6188.0
12.857873720 6141.0
12.879606600 6121.0
12.901339480 6078.0
12.923072360 6036.0
12.944805240 6199.0
12.966538120 6182.0
12.988271000 6119.0
13.010003880 6169.0
13.031736760 6258.0
13.053469640 6212.0
13.075202520 6207.0
13.096935400 6292.0
13.118668280 6263.0
13.140401160 6242.0
13.162134040 6245.0
13.183866920 6322.0
13.205599800 6112.0
13.227332680 6215.0
13.249065560 6337.0
13.270798440 6180.0
13.292531320 6217.0
13.314264200 6276.0
13.335997080 6211.0
13.357729960 6319.0
13.379462840 6327.0
13.401195720 6258.0
13.422928600 6300.0
13.444661480 6353.0
13.466394360 6218.0
13.488127240 6120.0
13.509860120 6304.0
13.531593000 6288.0
13.553325880 6211.0
13.575058760 6277.0
13.596791640 6446.0
13.618524520 6221.0
13.640257400 6113.0
13.661990280 6197.0
13.683723160 6388.0
13.705456040 6229.0
13.727188920 6302.0
13.748921800 6354.0
13.770654680 6335.0
13.792387560 6304.0
13.814120440 6359.0
13.835853320 6193.0
13.857586200 6312.0
13.879319080 6331.0
13.901051960 6468.0
13.922784840 6373.0
13.944517720 6221.0
13.966250600 6327.0
13.987983480 6361.0
14.009716360 6309.0
14.031449240 6467.0
14.053182120 6393.0
14.074915000 6299.0
14.096647880 6387.0
14.118380760 6389.0
14.140113640 6345.0
14.161846520 6363.0
14.183579400 6490.0
14.205312280 6417.0
14.227045160 6526.0
14.248778040 6522.0
14.270510920 6385.0
14.292243800 6491.0
14.313976680 6360.0
14.335709560 6467.0
14.357442440 6313.0
14.379175320 6278.0
14.400908200 6394.0
14.422641080 6531.0
14.444373960 6451.0
14.466106840 6421.0
14.487839720 6433.0
14.509572600 6379.0
14.531305480 6581.0
14.553038360 6336.0
14.574771240 6412.0
14.596504120 6422.0
14.618237000 6602.0
14.639969880 6503.0
14.661702760 6482.0
14.683435640 6343.0
14.705168520 6541.0
14.726901400 6525.0
14.748634280 6676.0
14.770367160 6599.0
14.792100040 6442.0
14.813832920 6476.0
14.835565800 6327.0
14.857298680 6576.0
14.879031560 6431.0
14.900764440 6565.0
14.922497320 6544.0
14.944230200 6443.0
14.965963080 6567.0
14.987695960 6541.0
15.009428840 6513.0
15.031161720 6380.0
15.052894600 6518.0
15.074627480 6473.0
15.096360360 6543.0
15.118093240 6524.0
15.139826120 6570.0
15.161559000 6528.0
15.183291880 6519.0
15.205024760 6491.0
15.226757640 6660.0
15.248490520 6609.0
15.270223400 6454.0
15.291956280 6569.0
15.313689160 6507.0
15.335422040 6456.0
15.357154920 6498.0
15.378887800 6678.0
15.400620680 6623.0
15.422353560 6641.0
15.444086440 6501.0
15.465819320 6455.0
15.487552200 6510.0
15.509285080 6403.0
15.531017960 6503.0
15.552750840 6616.0
15.574483720 6607.0
15.596216600 6622.0
15.617949480 6691.0
15.639682360 6578.0
15.661415240 6406.0
15.683148120 6708.0
15.704881000 6556.0
15.726613880 6761.0
15.748346760 6597.0
15.770079640 6836.0
15.791812520 6633.0
15.813545400 6477.0
15.835278280 6557.0
15.857011160 6653.0
15.878744040 6623.0
15.900476920 6712.0
15.922209800 6536.0
15.943942680 6675.0
15.965675560 6725.0
15.987408440 6702.0
16.009141320 6587.0
16.030874200 6606.0
16.052607080 6534.0
16.074339960 6811.0
16.096072840 6728.0
16.117805720 6590.0
16.139538600 6473.0
16.161271480 6753.0
16.183004360 6550.0
16.204737240 6576.0
16.226470120 6622.0
16.248203000 6594.0
16.269935880 6734.0
16.291668760 6701.0
16.313401640 6405.0
16.335134520 6678.0
16.356867400 6619.0
16.378600280 6716.0
16.400333160 6750.0
16.422066040 6637.0
16.443798920 6728.0
16.465531800 6686.0
16.487264680 6706.0
16.508997560 6643.0
16.530730440 6565.0
16.552463320 6821.0
16.574196200 6613.0
16.595929080 6567.0
16.617661960 6615.0
16.639394840 6790.0
16.661127720 6751.0
16.682860600 6594.0
16.704593480 6646.0
16.726326360 6551.0
16.748059240 6528.0
16.769792120 6566.0
16.791525000 6789.0
16.813257880 6713.0
16.834990760 6776.0
16.856723640 6792.0
16.878456520 6697.0
16.900189400 6690.0
16.921922280 6657.0
16.943655160 6803.0
16.965388040 6671.0
16.987120920 6807.0
17.008853800 6646.0
17.030586680 6691.0
17.052319560 6756.0
17.074052440 6780.0
17.095785320 6576.0
17.117518200 6758.0
17.139251080 6626.0
17.160983960 6745.0
17.182716840 6955.0
17.204449720 6767.0
17.226182600 6774.0
17.247915480 6716.0
17.269648360 6716.0
17.291381240 6699.0
17.313114120 6729.0
17.334847000 6616.0
17.356579880 6794.0
17.378312760 6718.0
17.400045640 6569.0
17.421778520 6701.0
17.443511400 6779.0
17.465244280 6621.0
17.486977160 6811.0
17.508710040 6708.0
17.530442920 6646.0
17.552175800 6655.0
17.573908680 6661.0
17.595641560 6728.0
17.617374440 6743.0
17.639107320 6655.0
17.660840200 6717.0
17.682573080 6937.0
17.704305960 6693.0
17.726038840 6974.0
17.747771720 6754.0
17.769504600 6737.0
17.791237480 6794.0
17.812970360 7025.0
17.834703240 6824.0
17.856436120 6913.0
17.878169000 6636.0
17.899901880 6683.0
17.921634760 6803.0
17.943367640 6943.0
17.965100520 6936.0
17.986833400 6803.0
18.008566280 6805.0
18.030299160 7003.0
18.052032040 6842.0
18.073764920 6869.0
18.095497800 6818.0
18.117230680 6745.0
18.138963560 6724.0
18.160696440 6874.0
18.182429320 6990.0
18.204162200 7116.0
18.225895080 7080.0
18.247627960 6834.0
18.269360840 6863.0
18.291093720 6954.0
18.312826600 6946.0
18.334559480 6867.0
18.356292360 7065.0
18.378025240 6891.0
18.399758120 6996.0
18.421491000 6828.0
18.443223880 6918.0
18.464956760 6820.0
18.486689640 7023.0
18.508422520 6896.0
18.530155400 7084.0
18.551888280 6999.0
18.573621160 6911.0
18.595354040 6885.0
18.617086920 6862.0
18.638819800 6771.0
18.660552680 6838.0
18.682285560 6956.0
18.704018440 6945.0
18.725751320 7041.0
18.747484200 7004.0
18.769217080 6875.0
18.790949960 6951.0
18.812682840 6925.0
18.834415720 6997.0
18.856148600 7160.0
18.877881480 6984.0
18.899614360 7002.0
18.921347240 7033.0
18.943080120 6992.0
18.964813000 7096.0
18.986545880 7002.0
19.008278760 6981.0
19.030011640 6947.0
19.051744520 7102.0
19.073477400 7089.0
19.095210280 7103.0
19.116943160 6932.0
19.138676040 7016.0
19.160408920 6995.0
19.182141800 6882.0
19.203874680 7038.0
19.225607560 6898.0
19.247340440 7023.0
19.269073320 7066.0
19.290806200 6963.0
19.312539080 6993.0
19.334271960 6897.0
19.356004840 6869.0
19.377737720 6989.0
19.399470600 7132.0
19.421203480 6994.0
19.442936360 7112.0
19.464669240 6970.0
19.486402120 6973.0
19.508135000 6916.0
19.529867880 7082.0
19.551600760 7051.0
19.573333640 7139.0
19.595066520 6965.0
19.616799400 7104.0
19.638532280 6990.0
19.660265160 6938.0
19.681998040 7022.0
19.703730920 7083.0
19.725463800 6978.0
19.747196680 6980.0
19.768929560 7123.0
19.790662440 7211.0
19.812395320 7144.0
19.834128200 7032.0
19.855861080 7307.0
19.877593960 7086.0
19.899326840 7053.0
19.921059720 7235.0
19.942792600 7134.0
19.964525480 7162.0
19.986258360 7088.0
20.007991240 7049.0
20.029724120 7120.0
20.051457000 7178.0
20.073189880 7105.0
20.094922760 6935.0
20.116655640 7079.0
20.138388520 7105.0
20.160121400 7076.0
20.181854280 7256.0
20.203587160 7170.0
20.225320040 7113.0
20.247052920 7097.0
20.268785800 7251.0
20.290518680 7132.0
20.312251560 7257.0
20.333984440 7106.0
20.355717320 7131.0
20.377450200 7231.0
20.399183080 7229.0
20.420915960 6915.0
20.442648840 7141.0
20.464381720 7145.0
20.486114600 7188.0
20.507847480 7175.0
20.529580360 7233.0
20.551313240 7207.0
20.573046120 7366.0
20.594779000 7259.0
20.616511880 7091.0
20.638244760 7256.0
20.659977640 7286.0
20.681710520 7131.0
20.703443400 7216.0
20.725176280 7212.0
20.746909160 7268.0
20.768642040 7174.0
20.790374920 7258.0
20.812107800 6939.0
20.833840680 7119.0
20.855573560 7267.0
20.877306440 7162.0
20.899039320 7180.0
20.920772200 7207.0
20.942505080 7137.0
20.964237960 7256.0
20.985970840 7249.0
21.007703720 7257.0
21.029436600 7116.0
21.051169480 7209.0
21.072902360 7149.0
21.094635240 7234.0
21.116368120 7167.0
21.138101000 7322.0
21.159833880 7304.0
21.181566760 7123.0
21.203299640 7192.0
21.225032520 7335.0
21.246765400 7283.0
21.268498280 7206.0
21.290231160 7265.0
21.311964040 7195.0
21.333696920 7222.0
21.355429800 7224.0
21.377162680 7215.0
21.398895560 7191.0
21.420628440 7362.0
21.442361320 7206.0
21.464094200 7408.0
21.485827080 7449.0
21.507559960 7325.0
21.529292840 7316.0
21.551025720 7377.0
21.572758600 7362.0
21.594491480 7327.0
21.616224360 7367.0
21.637957240 7371.0
21.659690120 7358.0
21.681423000 7307.0
21.703155880 7303.0
21.724888760 7286.0
21.746621640 7274.0
21.768354520 7292.0
21.790087400 7181.0
21.811820280 7141.0
21.833553160 7188.0
21.855286040 7285.0
21.877018920 7347.0
21.898751800 7340.0
21.920484680 7363.0
21.942217560 7348.0
21.963950440 7217.0
21.985683320 7212.0
22.007416200 7297.0
22.029149080 7237.0
22.050881960 7364.0
22.072614840 7373.0
22.094347720 7478.0
22.116080600 7414.0
22.137813480 7383.0
22.159546360 7342.0
22.181279240 7291.0
22.203012120 7188.0
22.224745000 7329.0
22.246477880 7248.0
22.268210760 7205.0
22.289943640 7423.0
22.311676520 7459.0
22.333409400 7278.0
22.355142280 7406.0
22.376875160 7457.0
22.398608040 7508.0
22.420340920 7523.0
22.442073800 7332.0
22.463806680 7494.0
22.485539560 7275.0
22.507272440 7302.0
22.529005320 7431.0
22.550738200 7597.0
22.572471080 7446.0
22.594203960 7307.0
22.615936840 7508.0
22.637669720 7415.0
22.659402600 7225.0
22.681135480 7435.0
22.702868360 7304.0
22.724601240 7549.0
22.746334120 7358.0
22.768067000 7516.0
22.789799880 7329.0
22.811532760 7337.0
22.833265640 7329.0
22.854998520 7353.0
22.876731400 7557.0
22.898464280 7365.0
22.920197160 7393.0
22.941930040 7303.0
22.963662920 7152.0
22.985395800 7499.0
23.007128680 7307.0
23.028861560 7428.0
23.050594440 7351.0
23.072327320 7504.0
23.094060200 7422.0
23.115793080 7546.0
23.137525960 7374.0
23.159258840 7325.0
23.180991720 7493.0
23.202724600 7436.0
23.224457480 7545.0
23.246190360 7563.0
23.267923240 7312.0
23.289656120 7334.0
23.311389000 7457.0
23.333121880 7404.0
23.354854760 7480.0
23.376587640 7451.0
23.398320520 7492.0
23.420053400 7380.0
23.441786280 7538.0
23.463519160 7464.0
23.485252040 7520.0
23.506984920 7391.0
23.528717800 7571.0
23.550450680 7461.0
23.572183560 7292.0
23.593916440 7370.0
23.615649320 7479.0
23.637382200 7309.0
23.659115080 7684.0
23.680847960 7571.0
23.702580840 7481.0
23.724313720 7531.0
23.746046600 7527.0
23.767779480 7547.0
23.789512360 7456.0
23.811245240 7462.0
23.832978120 7415.0
23.854711000 7640.0
23.876443880 7607.0
23.898176760 7521.0
23.919909640 7428.0
23.941642520 7508.0
23.963375400 7509.0
23.985108280 7558.0
24.006841160 7641.0
24.028574040 7627.0
24.050306920 7767.0
24.072039800 7513.0
24.093772680 7518.0
24.115505560 7444.0
24.137238440 7683.0
24.158971320 7384.0
24.180704200 7524.0
24.202437080 7475.0
24.224169960 7664.0
24.245902840 7570.0
24.267635720 7450.0
24.289368600 7520.0
24.311101480 7549.0
24.332834360 7614.0
24.354567240 7592.0
24.376300120 7634.0
24.398033000 7702.0
24.419765880 7851.0
24.441498760 7827.0
24.463231640 7908.0
24.484964520 7966.0
24.506697400 7973.0
24.528430280 8002.0
24.550163160 8285.0
24.571896040 8219.0
24.593628920 8401.0
24.615361800 8445.0
24.637094680 8503.0
24.658827560 8232.0
24.680560440 8127.0
24.702293320 8065.0
24.724026200 7911.0
24.745759080 7565.0
24.767491960 7588.0
24.789224840 7757.0
24.810957720 7674.0
24.832690600 7439.0
24.854423480 7538.0
24.876156360 7616.0
24.897889240 7623.0
24.919622120 7608.0
24.941355000 7639.0
24.963087880 7706.0
24.984820760 7838.0
25.006553640 7630.0
25.028286520 7520.0
25.050019400 7584.0
25.071752280 7377.0
25.093485160 7503.0
25.115218040 7671.0
25.136950920 7650.0
25.158683800 7582.0
25.180416680 7551.0
25.202149560 7610.0
25.223882440 7650.0
25.245615320 7610.0
25.267348200 7800.0
25.289081080 7698.0
25.310813960 7716.0
25.332546840 7516.0
25.354279720 7776.0
25.376012600 7769.0
25.397745480 7631.0
25.419478360 7721.0
25.441211240 7684.0
25.462944120 7658.0
25.484677000 7757.0
25.506409880 7827.0
25.528142760 7751.0
25.549875640 7784.0
25.571608520 7810.0
25.593341400 7967.0
25.615074280 7916.0
25.636807160 8053.0
25.658540040 8051.0
25.680272920 8279.0
25.702005800 8291.0
25.723738680 8119.0
25.745471560 8030.0
25.767204440 8128.0
25.788937320 7744.0
25.810670200 7776.0
25.832403080 7586.0
25.854135960 7867.0
25.875868840 7811.0
25.897601720 7733.0
25.919334600 7689.0
25.941067480 7887.0
25.962800360 7618.0
25.984533240 7982.0
26.006266120 7661.0
26.027999000 7666.0
26.049731880 7739.0
26.071464760 7864.0
26.093197640 7739.0
26.114930520 7928.0
26.136663400 7745.0
26.158396280 7721.0
26.180129160 7791.0
26.201862040 7859.0
26.223594920 7861.0
26.245327800 7675.0
26.267060680 7669.0
26.288793560 7675.0
26.310526440 7726.0
26.332259320 7821.0
26.353992200 7691.0
26.375725080 7728.0
26.397457960 7753.0
26.419190840 7800.0
26.440923720 7748.0
26.462656600 7777.0
26.484389480 7894.0
26.506122360 7656.0
26.527855240 7905.0
26.549588120 7932.0
26.571321000 7778.0
26.593053880 7927.0
26.614786760 7883.0
26.636519640 8172.0
26.658252520 8185.0
26.679985400 8141.0
26.701718280 7883.0
26.723451160 7921.0
26.745184040 8003.0
26.766916920 7706.0
26.788649800 7689.0
26.810382680 8012.0
26.832115560 7877.0
26.853848440 7836.0
26.875581320 7634.0
26.897314200 7887.0
26.919047080 7612.0
26.940779960 7824.0
26.962512840 7792.0
26.984245720 7729.0
27.005978600 7768.0
27.027711480 7831.0
27.049444360 7674.0
27.071177240 8041.0
27.092910120 7951.0
27.114643000 7714.0
27.136375880 7925.0
27.158108760 7691.0
27.179841640 7890.0
27.201574520 7947.0
27.223307400 7920.0
27.245040280 7971.0
27.266773160 7983.0
27.288506040 7914.0
27.310238920 7854.0
27.331971800 8108.0
27.353704680 7928.0
27.375437560 7944.0
27.397170440 8105.0
27.418903320 8134.0
27.440636200 8202.0
27.462369080 8343.0
27.484101960 8345.0
27.505834840 8475.0
27.527567720 8626.0
27.549300600 8609.0
27.571033480 8549.0
27.592766360 8590.0
27.614499240 8790.0
27.636232120 8867.0
27.657965000 8918.0
27.679697880 8883.0
27.701430760 9139.0
27.723163640 8853.0
27.744896520 8883.0
27.766629400 9081.0
27.788362280 8997.0
27.810095160 8904.0
27.831828040 8927.0
27.853560920 9174.0
27.875293800 9194.0
27.897026680 9344.0
27.918759560 9344.0
27.940492440 9628.0
27.962225320 9950.0
27.983958200 10086.0
28.005691080 10425.0
28.027423960 10376.0
28.049156840 10744.0
28.070889720 11439.0
28.092622600 11877.0
28.114355480 12418.0
28.136088360 13138.0
28.157821240 14365.0
28.179554120 15525.0
28.201287000 17338.0
28.223019880 19669.0
28.244752760 22352.0
28.266485640 26264.0
28.288218520 31129.0
28.309951400 37693.0
28.331684280 45598.0
28.353417160 55644.0
28.375150040 68108.0
28.396882920 82553.0
28.418615800 99973.0
28.440348680 119713.0
28.462081560 141999.0
28.483814440 164441.0
28.505547320 176667.0
28.527280200 171156.0
28.549013080 149911.0
28.570745960 126537.0
28.592478840 102529.0
28.614211720 76723.0
28.635944600 54638.0
28.657677480 38272.0
28.679410360 28073.0
28.701143240 21978.0
28.722876120 18132.0
28.744609000 15995.0
28.766341880 14619.0
28.788074760 13565.0
28.809807640 12609.0
28.831540520 12009.0
28.853273400 11531.0
28.875006280 11011.0
28.896739160 10694.0
28.918472040 10365.0
28.940204920 9916.0
28.961937800 9735.0
28.983670680 9654.0
29.005403560 9415.0
29.027136440 9178.0
29.048869320 9232.0
29.070602200 9191.0
29.092335080 9064.0
29.114067960 8959.0
29.135800840 8853.0
29.157533720 8841.0
29.179266600 8723.0
29.200999480 8831.0
29.222732360 8789.0
29.244465240 8555.0
29.266198120 8731.0
29.287931000 8552.0
29.309663880 8661.0
29.331396760 8740.0
29.353129640 8471.0
29.374862520 8499.0
29.396595400 8518.0
29.418328280 8658.0
29.440061160 8670.0
29.461794040 8574.0
29.483526920 8435.0
29.505259800 8430.0
29.526992680 8599.0
29.548725560 8529.0
29.570458440 8461.0
29.592191320 8301.0
29.613924200 8459.0
29.635657080 8597.0
29.657389960 8379.0
29.679122840 8420.0
29.700855720 8388.0
29.722588600 8465.0
29.744321480 8427.0
29.766054360 8572.0
29.787787240 8409.0
29.809520120 8378.0
29.831253000 8445.0
29.852985880 8367.0
29.874718760 8206.0
29.896451640 8423.0
29.918184520 8248.0
29.939917400 8304.0
29.961650280 8336.0
29.983383160 8170.0
30.005116040 8229.0
30.026848920 8297.0
30.048581800 8282.0
30.070314680 8427.0
30.092047560 8159.0
30.113780440 8197.0
30.135513320 8414.0
30.157246200 8279.0
30.178979080 8095.0
30.200711960 8351.0
30.222444840 8340.0
30.244177720 8388.0
30.265910600 8202.0
30.287643480 8178.0
30.309376360 8285.0
30.331109240 8189.0
30.352842120 8084.0
30.374575000 8297.0
30.396307880 8165.0
30.418040760 8076.0
30.439773640 8182.0
30.461506520 8279.0
30.483239400 8116.0
30.504972280 8224.0
30.526705160 8243.0
30.548438040 8066.0
30.570170920 8057.0
30.591903800 8194.0
30.613636680 8361.0
30.635369560 8091.0
30.657102440 8151.0
30.678835320 8135.0
30.700568200 7912.0
30.722301080 8083.0
30.744033960 8201.0
30.765766840 8286.0
30.787499720 8303.0
30.809232600 8205.0
30.830965480 8420.0
30.852698360 8248.0
30.874431240 8233.0
30.896164120 8118.0
30.917897000 8140.0
30.939629880 8097.0
30.961362760 8096.0
30.983095640 8219.0
31.004828520 7831.0
31.026561400 8094.0
31.048294280 8360.0
31.070027160 8215.0
31.091760040 8221.0
31.113492920 8049.0
31.135225800 8220.0
31.156958680 8208.0
31.178691560 8124.0
31.200424440 8144.0
31.222157320 8286.0
31.243890200 7972.0
31.265623080 8252.0
31.287355960 8186.0
31.309088840 8029.0
31.330821720 8248.0
31.352554600 8119.0
31.374287480 8186.0
31.396020360 8251.0
31.417753240 8087.0
31.439486120 8003.0
31.461219000 8122.0
31.482951880 8257.0
31.504684760 8095.0
31.526417640 7953.0
31.548150520 7977.0
31.569883400 7986.0
31.591616280 8121.0
31.613349160 8167.0
31.635082040 8049.0
31.656814920 8048.0
31.678547800 8080.0
31.700280680 8107.0
31.722013560 8184.0
31.743746440 8004.0
31.765479320 8170.0
31.787212200 7992.0
31.808945080 8077.0
31.830677960 7958.0
31.852410840 8062.0
31.874143720 7966.0
31.895876600 7952.0
31.917609480 7964.0
31.939342360 7967.0
31.961075240 8158.0
31.982808120 8179.0
32.004541000 8059.0
32.026273880 7969.0
32.048006760 8011.0
32.069739640 8012.0
32.091472520 8257.0
32.113205400 8249.0
32.134938280 8193.0
32.156671160 8184.0
32.178404040 8026.0
32.200136920 7992.0
32.221869800 8014.0
32.243602680 8151.0
32.265335560 8143.0
32.287068440 8111.0
32.308801320 8122.0
32.330534200 8075.0
32.352267080 8190.0
32.373999960 7980.0
32.395732840 8219.0
32.417465720 7990.0
32.439198600 8003.0
32.460931480 8125.0
32.482664360 8037.0
32.504397240 7896.0
32.526130120 8013.0
32.547863000 7919.0
32.569595880 8022.0
32.591328760 8123.0
32.613061640 8107.0
32.634794520 8069.0
32.656527400 7977.0
32.678260280 7920.0
32.699993160 8032.0
32.721726040 7999.0
32.743458920 7936.0
32.765191800 8082.0
32.786924680 8072.0
32.808657560 7928.0
32.830390440 7981.0
32.852123320 7963.0
32.873856200 7903.0
32.895589080 7881.0
32.917321960 8010.0
32.939054840 8106.0
32.960787720 8044.0
32.982520600 8141.0
33.004253480 7924.0
33.025986360 7999.0
33.047719240 7930.0
33.069452120 7965.0
33.091185000 7947.0
33.112917880 7988.0
33.134650760 8036.0
33.156383640 7979.0
33.178116520 8068.0
33.199849400 8041.0
33.221582280 7991.0
33.243315160 8123.0
33.265048040 8086.0
33.286780920 7895.0
33.308513800 7895.0
33.330246680 8012.0
33.351979560 7947.0
33.373712440 7804.0
33.395445320 8008.0
33.417178200 7935.0
33.438911080 8007.0
33.460643960 8013.0
33.482376840 7978.0
33.504109720 7931.0
33.525842600 7910.0
33.547575480 7885.0
33.569308360 7845.0
33.591041240 8060.0
33.612774120 8082.0
33.634507000 8064.0
33.656239880 7945.0
33.677972760 7999.0
33.699705640 7959.0
33.721438520 7875.0
33.743171400 7905.0
33.764904280 7930.0
33.786637160 7731.0
33.808370040 7880.0
33.830102920 7843.0
33.851835800 7996.0
33.873568680 7808.0
33.895301560 7850.0
33.917034440 7927.0
33.938767320 8137.0
33.960500200 8101.0
33.982233080 8129.0
34.003965960 8205.0
34.025698840 8003.0
34.047431720 7833.0
34.069164600 7952.0
34.090897480 7968.0
34.112630360 7967.0
34.134363240 7921.0
34.156096120 7804.0
34.177829000 7955.0
34.199561880 7963.0
34.221294760 7833.0
34.243027640 7938.0
34.264760520 7823.0
34.286493400 7980.0
34.308226280 7905.0
34.329959160 7945.0
34.351692040 8022.0
34.373424920 7780.0
34.395157800 8171.0
34.416890680 8008.0
34.438623560 8038.0
34.460356440 8016.0
34.482089320 8077.0
34.503822200 7978.0
34.525555080 7962.0
34.547287960 8013.0
34.569020840 8103.0
34.590753720 8045.0
34.612486600 7945.0
34.634219480 7760.0
34.655952360 7819.0
34.677685240 7961.0
34.699418120 7777.0
34.721151000 7740.0
34.742883880 7884.0
34.764616760 7696.0
34.786349640 8028.0
34.808082520 8032.0
34.829815400 7785.0
34.851548280 7914.0
34.873281160 8000.0
34.895014040 7920.0
34.916746920 7951.0
34.938479800 8065.0
34.960212680 7914.0
34.981945560 7844.0
35.003678440 7919.0
35.025411320 8081.0
35.047144200 8017.0
35.068877080 7904.0
35.090609960 8077.0
35.112342840 7791.0
35.134075720 7845.0
35.155808600 7942.0
35.177541480 8077.0
35.199274360 7984.0
35.221007240 7987.0
35.242740120 7930.0
35.264473000 7972.0
35.286205880 7969.0
35.307938760 8114.0
35.329671640 7835.0
35.351404520 7789.0
35.373137400 7822.0
35.394870280 7782.0
35.416603160 7836.0
35.438336040 8150.0
35.460068920 8051.0
35.481801800 7769.0
35.503534680 7930.0
35.525267560 7874.0
35.547000440 8019.0
35.568733320 8084.0
35.590466200 7955.0
35.612199080 7927.0
35.633931960 7937.0
35.655664840 7944.0
35.677397720 7932.0
35.699130600 7890.0
35.720863480 8109.0
35.742596360 7929.0
35.764329240 7997.0
35.786062120 7909.0
35.807795000 7869.0
35.829527880 7974.0
35.851260760 7977.0
35.872993640 8054.0
35.894726520 7932.0
35.916459400 7891.0
35.938192280 8007.0
35.959925160 7845.0
35.981658040 7897.0
36.003390920 7855.0
36.025123800 7942.0
36.046856680 7810.0
36.068589560 7960.0
36.090322440 7912.0
36.112055320 7966.0
36.133788200 7839.0
36.155521080 8081.0
36.177253960 8121.0
36.198986840 7957.0
36.220719720 8152.0
36.242452600 7839.0
36.264185480 7906.0
36.285918360 8042.0
36.307651240 7858.0
36.329384120 8037.0
36.351117000 7812.0
36.372849880 7996.0
36.394582760 8052.0
36.416315640 8004.0
36.438048520 7897.0
36.459781400 7967.0
36.481514280 7845.0
36.503247160 8048.0
36.524980040 7920.0
36.546712920 8087.0
36.568445800 8169.0
36.590178680 7948.0
36.611911560 8062.0
36.633644440 8323.0
36.655377320 8143.0
36.677110200 8238.0
36.698843080 8259.0
36.720575960 8417.0
36.742308840 8123.0
36.764041720 8184.0
36.785774600 8174.0
36.807507480 8013.0
36.829240360 8176.0
36.850973240 7980.0
36.872706120 7912.0
36.894439000 7860.0
36.916171880 7852.0
36.937904760 7878.0
36.959637640 7882.0
36.981370520 8137.0
37.003103400 8040.0
37.024836280 7719.0
37.046569160 7877.0
37.068302040 8016.0
37.090034920 7861.0
37.111767800 7911.0
37.133500680 7914.0
37.155233560 7993.0
37.176966440 7879.0
37.198699320 7966.0
37.220432200 7816.0
37.242165080 7883.0
37.263897960 7770.0
37.285630840 7932.0
37.307363720 7934.0
37.329096600 7980.0
37.350829480 8016.0
37.372562360 8024.0
37.394295240 8007.0
37.416028120 7899.0
37.437761000 7824.0
37.459493880 7987.0
37.481226760 7896.0
37.502959640 8056.0
37.524692520 8028.0
37.546425400 7975.0
37.568158280 7959.0
37.589891160 7957.0
37.611624040 7911.0
37.633356920 8003.0
37.655089800 7870.0
37.676822680 7888.0
37.698555560 7867.0
37.720288440 7969.0
37.742021320 8045.0
37.763754200 7940.0
37.785487080 7797.0
37.807219960 8089.0
37.828952840 8030.0
37.850685720 7964.0
37.872418600 7980.0
37.894151480 8022.0
37.915884360 7885.0
37.937617240 7948.0
37.959350120 7917.0
37.981083000 7946.0
38.002815880 7827.0
38.024548760 7981.0
38.046281640 7937.0
38.068014520 8010.0
38.089747400 7907.0
38.111480280 7801.0
38.133213160 7948.0
38.154946040 8158.0
38.176678920 7899.0
38.198411800 7960.0
38.220144680 7869.0
38.241877560 7783.0
38.263610440 7807.0
38.285343320 7851.0
38.307076200 8037.0
38.328809080 8076.0
38.350541960 8041.0
38.372274840 7874.0
38.394007720 7926.0
38.415740600 7785.0
38.437473480 7859.0
38.459206360 7919.0
38.480939240 7832.0
38.502672120 7908.0
38.524405000 7859.0
38.546137880 8039.0
38.567870760 7881.0
38.589603640 8087.0
38.611336520 8201.0
38.633069400 7926.0
38.654802280 8151.0
38.676535160 8016.0
38.698268040 8227.0
38.720000920 8103.0
38.741733800 7967.0
38.763466680 7897.0
38.785199560 8104.0
38.806932440 7989.0
38.828665320 7920.0
38.850398200 7907.0
38.872131080 7978.0
38.893863960 7906.0
38.915596840 7780.0
38.937329720 8002.0
38.959062600 8027.0
38.980795480 8109.0
39.002528360 7913.0
39.024261240 7997.0
39.045994120 8168.0
39.067727000 7972.0
39.089459880 7940.0
39.111192760 8136.0
39.132925640 7991.0
39.154658520 8152.0
39.176391400 8119.0
39.198124280 8015.0
39.219857160 8334.0
39.241590040 8036.0
39.263322920 8210.0
39.285055800 8123.0
39.306788680 8207.0
39.328521560 8270.0
39.350254440 8373.0
39.371987320 8242.0
39.393720200 8350.0
39.415453080 8567.0
39.437185960 8285.0
39.458918840 8513.0
39.480651720 8484.0
39.502384600 8501.0
39.524117480 8556.0
39.545850360 8436.0
39.567583240 8507.0
39.589316120 8362.0
39.611049000 8573.0
39.632781880 8652.0
39.654514760 8508.0
39.676247640 8558.0
39.697980520 8661.0
39.719713400 8541.0
39.741446280 8471.0
39.763179160 8377.0
39.784912040 8293.0
39.806644920 8513.0
39.828377800 8608.0
39.850110680 8537.0
39.871843560 8663.0
39.893576440 8693.0
39.915309320 8801.0
39.937042200 8679.0
39.958775080 8648.0
39.980507960 8744.0
40.002240840 8844.0
40.023973720 8716.0
40.045706600 8690.0
40.067439480 8776.0
40.089172360 8817.0
40.110905240 8916.0
40.132638120 8953.0
40.154371000 8986.0
40.176103880 8975.0
40.197836760 9339.0
40.219569640 9583.0
40.241302520 9522.0
40.263035400 9673.0
40.284768280 9873.0
40.306501160 10200.0
40.328234040 10601.0
40.349966920 10846.0
40.371699800 11106.0
40.393432680 11704.0
40.415165560 11969.0
40.436898440 12650.0
40.458631320 13489.0
40.480364200 14109.0
40.502097080 15538.0
40.523829960 17134.0
40.545562840 19152.0
40.567295720 22150.0
40.589028600 25895.0
40.610761480 30505.0
40.632494360 36584.0
40.654227240 44764.0
40.675960120 55114.0
40.697693000 68269.0
40.719425880 84422.0
40.741158760 102893.0
40.762891640 118251.0
40.784624520 123090.0
40.806357400 112945.0
40.828090280 96757.0
40.849823160 84504.0
40.871556040 77417.0
40.893288920 70161.0
40.915021800 57067.0
40.936754680 43164.0
40.958487560 32267.0
40.980220440 25014.0
41.001953320 20443.0
41.023686200 17822.0
41.045419080 15937.0
41.067151960 14612.0
41.088884840 13614.0
41.110617720 12832.0
41.132350600 12029.0
41.154083480 11707.0
41.175816360 11071.0
41.197549240 10615.0
41.219282120 10296.0
41.241015000 10083.0
41.262747880 9937.0
41.284480760 9465.0
41.306213640 9482.0
41.327946520 9630.0
41.349679400 9289.0
41.371412280 9073.0
41.393145160 9101.0
41.414878040 8927.0
41.436610920 8939.0
41.458343800 9055.0
41.480076680 8746.0
41.501809560 8670.0
41.523542440 8787.0
41.545275320 8695.0
41.567008200 8560.0
41.588741080 8595.0
41.610473960 8849.0
41.632206840 8523.0
41.653939720 8637.0
41.675672600 8661.0
41.697405480 8496.0
41.719138360 8542.0
41.740871240 8384.0
41.762604120 8595.0
41.784337000 8431.0
41.806069880 8508.0
41.827802760 8581.0
41.849535640 8514.0
41.871268520 8453.0
41.893001400 8372.0
41.914734280 8392.0
41.936467160 8304.0
41.958200040 8432.0
41.979932920 8360.0
42.001665800 8324.0
42.023398680 8345.0
42.045131560 8309.0
42.066864440 8389.0
42.088597320 8453.0
42.110330200 8414.0
42.132063080 8382.0
42.153795960 8437.0
42.175528840 8591.0
42.197261720 8227.0
42.218994600 8257.0
42.240727480 8219.0
42.262460360 8430.0
42.284193240 8281.0
42.305926120 8554.0
42.327659000 8287.0
42.349391880 8347.0
42.371124760 8216.0
42.392857640 8399.0
42.414590520 8370.0
42.436323400 8256.0
42.458056280 8220.0
42.479789160 8120.0
42.501522040 8311.0
42.523254920 8248.0
42.544987800 8358.0
42.566720680 8327.0
42.588453560 8285.0
42.610186440 8436.0
42.631919320 8508.0
42.653652200 8160.0
42.675385080 8259.0
42.697117960 8239.0
42.718850840 8259.0
42.740583720 8160.0
42.762316600 8072.0
42.784049480 8345.0
42.805782360 8455.0
42.827515240 8354.0
42.849248120 8234.0
42.870981000 8308.0
42.892713880 8296.0
42.914446760 8166.0
42.936179640 8301.0
42.957912520 8341.0
42.979645400 8104.0
43.001378280 8119.0
43.023111160 8232.0
43.044844040 8281.0
43.066576920 8245.0
43.088309800 8331.0
43.110042680 8259.0
43.131775560 8255.0
43.153508440 8216.0
43.175241320 8279.0
43.196974200 8113.0
43.218707080 8244.0
43.240439960 8230.0
43.262172840 8273.0
43.283905720 8264.0
43.305638600 8138.0
43.327371480 8345.0
43.349104360 8241.0
43.370837240 8250.0
43.392570120 8126.0
43.414303000 8165.0
43.436035880 8370.0
43.457768760 8090.0
43.479501640 8131.0
43.501234520 8254.0
43.522967400 8191.0
43.544700280 8312.0
43.566433160 8295.0
43.588166040 8235.0
43.609898920 8171.0
43.631631800 8163.0
43.653364680 8284.0
43.675097560 8268.0
43.696830440 8257.0
43.718563320 8235.0
43.740296200 8190.0
43.762029080 8283.0
43.783761960 8148.0
43.805494840 8210.0
43.827227720 8346.0
43.848960600 8340.0
43.870693480 8205.0
43.892426360 8399.0
43.914159240 8198.0
43.935892120 8371.0
43.957625000 8258.0
43.979357880 8246.0
44.001090760 8304.0
44.022823640 8365.0
44.044556520 8332.0
44.066289400 8216.0
44.088022280 8274.0
44.109755160 8201.0
44.131488040 8234.0
44.153220920 8265.0
44.174953800 8158.0
44.196686680 8246.0
44.218419560 8346.0
44.240152440 8129.0
44.261885320 8286.0
44.283618200 8302.0
44.305351080 8096.0
44.327083960 8244.0
44.348816840 8202.0
44.370549720 8413.0
44.392282600 8294.0
44.414015480 8334.0
44.435748360 8338.0
44.457481240 8120.0
44.479214120 8338.0
44.500947000 8336.0
44.522679880 8247.0
44.544412760 8208.0
44.566145640 8396.0
44.587878520 8286.0
44.609611400 8332.0
44.631344280 8350.0
44.653077160 8180.0
44.674810040 8266.0
44.696542920 8533.0
44.718275800 8375.0
44.740008680 8368.0
44.761741560 8283.0
44.783474440 8405.0
44.805207320 8200.0
44.826940200 8268.0
44.848673080 8239.0
44.870405960 8313.0
44.892138840 8174.0
44.913871720 8162.0
44.935604600 8117.0
44.957337480 8248.0
44.979070360 8240.0
45.000803240 8448.0
45.022536120 8104.0
45.044269000 8186.0
45.066001880 8291.0
45.087734760 8352.0
45.109467640 8223.0
45.131200520 8135.0
45.152933400 8234.0
45.174666280 8262.0
45.196399160 8214.0
45.218132040 8076.0
45.239864920 8175.0
45.261597800 8158.0
45.283330680 8222.0
45.305063560 7954.0
45.326796440 8214.0
45.348529320 8382.0
45.370262200 8341.0
45.391995080 8296.0
45.413727960 8260.0
45.435460840 8180.0
45.457193720 8258.0
45.478926600 8275.0
45.500659480 8262.0
45.522392360 8248.0
45.544125240 8224.0
45.565858120 8322.0
45.587591000 8173.0
45.609323880 8163.0
45.631056760 8217.0
45.652789640 8188.0
45.674522520 8229.0
45.696255400 8251.0
45.717988280 8310.0
45.739721160 8040.0
45.761454040 8027.0
45.783186920 8095.0
45.804919800 8099.0
45.826652680 8324.0
45.848385560 8141.0
45.870118440 8281.0
45.891851320 8082.0
45.913584200 8266.0
45.935317080 8050.0
45.957049960 8124.0
45.978782840 8259.0
46.000515720 8242.0
46.022248600 8076.0
46.043981480 8149.0
46.065714360 8098.0
46.087447240 8113.0
46.109180120 8152.0
46.130913000 8140.0
46.152645880 8177.0
46.174378760 8230.0
46.196111640 8166.0
46.217844520 8071.0
46.239577400 8009.0
46.261310280 8273.0
46.283043160 8201.0
46.304776040 8133.0
46.326508920 8045.0
46.348241800 8174.0
46.369974680 8224.0
46.391707560 8292.0
46.413440440 8177.0
46.435173320 8229.0
46.456906200 8138.0
46.478639080 8298.0
46.500371960 8102.0
46.522104840 8233.0
46.543837720 8066.0
46.565570600 8192.0
46.587303480 8183.0
46.609036360 8210.0
46.630769240 7993.0
46.652502120 8126.0
46.674235000 8203.0
46.695967880 8321.0
46.717700760 8156.0
46.739433640 8256.0
46.761166520 8135.0
46.782899400 8143.0
46.804632280 7876.0
46.826365160 8029.0
46.848098040 8274.0
46.869830920 8254.0
46.891563800 8236.0
46.913296680 8281.0
46.935029560 8171.0
46.956762440 8073.0
46.978495320 8043.0
47.000228200 8047.0
47.021961080 7983.0
47.043693960 8120.0
47.065426840 8280.0
47.087159720 8125.0
47.108892600 8223.0
47.130625480 8066.0
47.152358360 8195.0
47.174091240 8095.0
47.195824120 8143.0
47.217557000 8075.0
47.239289880 8075.0
47.261022760 8163.0
47.282755640 7996.0
47.304488520 8034.0
47.326221400 8147.0
47.347954280 8220.0
47.369687160 8261.0
47.391420040 8126.0
47.413152920 8113.0
47.434885800 8070.0
47.456618680 8004.0
47.478351560 8203.0
47.500084440 8087.0
47.521817320 8101.0
47.543550200 8163.0
47.565283080 7975.0
47.587015960 8160.0
47.608748840 7997.0
47.630481720 8188.0
47.652214600 8091.0
47.673947480 8146.0
47.695680360 8106.0
47.717413240 7923.0
47.739146120 7961.0
47.760879000 8165.0
47.782611880 8170.0
47.804344760 8112.0
47.826077640 7987.0
47.847810520 7971.0
47.869543400 8156.0
47.891276280 8006.0
47.913009160 8127.0
47.934742040 8184.0
47.956474920 8089.0
47.978207800 8094.0
47.999940680 8448.0
48.021673560 8175.0
48.043406440 8113.0
48.065139320 8159.0
48.086872200 8256.0
48.108605080 8356.0
48.130337960 8124.0
48.152070840 8404.0
48.173803720 8420.0
48.195536600 8695.0
48.217269480 8851.0
48.239002360 8671.0
48.260735240 8662.0
48.282468120 8358.0
48.304201000 8396.0
48.325933880 8656.0
48.347666760 8403.0
48.369399640 8409.0
48.391132520 8376.0
48.412865400 8363.0
48.434598280 8096.0
48.456331160 8279.0
48.478064040 8090.0
48.499796920 8262.0
48.521529800 8004.0
48.543262680 8017.0
48.564995560 8015.0
48.586728440 7996.0
48.608461320 8107.0
48.630194200 8107.0
48.651927080 8165.0
48.673659960 8135.0
48.695392840 8100.0
48.717125720 8050.0
48.738858600 8024.0
48.760591480 8279.0
48.782324360 8196.0
48.804057240 8294.0
48.825790120 8176.0
48.847523000 8216.0
48.869255880 8240.0
48.890988760 8263.0
48.912721640 8100.0
48.934454520 8375.0
48.956187400 8203.0
48.977920280 8107.0
48.999653160 8172.0
49.021386040 8263.0
49.043118920 8101.0
49.064851800 8067.0
49.086584680 8320.0
49.108317560 8207.0
49.130050440 8250.0
49.151783320 8403.0
49.173516200 8251.0
49.195249080 8057.0
49.216981960 8212.0
49.238714840 8296.0
49.260447720 8089.0
49.282180600 8156.0
49.303913480 8244.0
49.325646360 8159.0
49.347379240 8212.0
49.369112120 8268.0
49.390845000 8337.0
49.412577880 8308.0
49.434310760 8419.0
49.456043640 8081.0
49.477776520 8265.0
49.499509400 8143.0
49.521242280 8183.0
49.542975160 8255.0
49.564708040 8203.0
49.586440920 8411.0
49.608173800 8308.0
49.629906680 8399.0
49.651639560 8195.0
49.673372440 8249.0
49.695105320 8293.0
49.716838200 8277.0
49.738571080 8152.0
49.760303960 8219.0
49.782036840 8291.0
49.803769720 8222.0
49.825502600 8271.0
49.847235480 8153.0
49.868968360 8495.0
49.890701240 8242.0
49.912434120 8382.0
49.934167000 8297.0
49.955899880 8436.0
49.977632760 8580.0
49.999365640 8638.0
50.021098520 8637.0
50.042831400 8778.0
50.064564280 8950.0
50.086297160 8940.0
50.108030040 9175.0
50.129762920 9140.0
50.151495800 9179.0
50.173228680 9619.0
50.194961560 9618.0
50.216694440 10103.0
50.238427320 10514.0
50.260160200 10883.0
50.281893080 11269.0
50.303625960 11968.0
50.325358840 12511.0
50.347091720 13636.0
50.368824600 15088.0
50.390557480 17123.0
50.412290360 19549.0
50.434023240 23237.0
50.455756120 27346.0
50.477489000 33316.0
50.499221880 39192.0
50.520954760 43786.0
50.542687640 44192.0
50.564420520 39448.0
50.586153400 33150.0
50.607886280 29646.0
50.629619160 29085.0
50.651352040 29209.0
50.673084920 28212.0
50.694817800 24460.0
50.716550680 19868.0
50.738283560 16359.0
50.760016440 13861.0
50.781749320 12619.0
50.803482200 11728.0
50.825215080 11082.0
50.846947960 10659.0
50.868680840 10236.0
50.890413720 9860.0
50.912146600 9507.0
50.933879480 9208.0
50.955612360 9239.0
50.977345240 8934.0
50.999078120 8807.0
51.020811000 8804.0
51.042543880 8565.0
51.064276760 8479.0
51.086009640 8706.0
51.107742520 8517.0
51.129475400 8369.0
51.151208280 8503.0
51.172941160 8366.0
51.194674040 8269.0
51.216406920 8328.0
51.238139800 8461.0
51.259872680 8335.0
51.281605560 8241.0
51.303338440 8355.0
51.325071320 8225.0
51.346804200 8377.0
51.368537080 8226.0
51.390269960 8221.0
51.412002840 8348.0
51.433735720 8176.0
51.455468600 8317.0
51.477201480 8225.0
51.498934360 8200.0
51.520667240 7993.0
51.542400120 8265.0
51.564133000 8279.0
51.585865880 8161.0
51.607598760 8056.0
51.629331640 8111.0
51.651064520 8033.0
51.672797400 8149.0
51.694530280 8103.0
51.716263160 8250.0
51.737996040 8155.0
51.759728920 8115.0
51.781461800 8089.0
51.803194680 8193.0
51.824927560 8187.0
51.846660440 8247.0
51.868393320 8145.0
51.890126200 8022.0
51.911859080 8008.0
51.933591960 8159.0
51.955324840 8026.0
51.977057720 8020.0
51.998790600 8066.0
52.020523480 8095.0
52.042256360 8104.0
52.063989240 7986.0
52.085722120 8226.0
52.107455000 7980.0
52.129187880 8063.0
52.150920760 8046.0
52.172653640 8077.0
52.194386520 7933.0
52.216119400 7968.0
52.237852280 8158.0
52.259585160 8077.0
52.281318040 8020.0
52.303050920 8055.0
52.324783800 8031.0
52.346516680 7912.0
52.368249560 8067.0
52.389982440 7922.0
52.411715320 8023.0
52.433448200 8200.0
52.455181080 7964.0
52.476913960 8034.0
52.498646840 8165.0
52.520379720 8196.0
52.542112600 8109.0
52.563845480 7946.0
52.585578360 8063.0
52.607311240 7989.0
52.629044120 8059.0
52.650777000 7991.0
52.672509880 8006.0
52.694242760 8104.0
52.715975640 7997.0
52.737708520 8210.0
52.759441400 8152.0
52.781174280 7901.0
52.802907160 7862.0
52.824640040 8076.0
52.846372920 8174.0
52.868105800 8188.0
52.889838680 8223.0
52.911571560 8032.0
52.933304440 8168.0
52.955037320 8141.0
52.976770200 7910.0
52.998503080 8031.0
53.020235960 8233.0
53.041968840 8031.0
53.063701720 8089.0
53.085434600 8084.0
53.107167480 8073.0
53.128900360 8126.0
53.150633240 8126.0
53.172366120 8041.0
53.194099000 7953.0
53.215831880 7890.0
53.237564760 8025.0
53.259297640 7889.0
53.281030520 7882.0
53.302763400 8022.0
53.324496280 7976.0
53.346229160 7970.0
53.367962040 7936.0
53.389694920 8049.0
53.411427800 8052.0
53.433160680 7920.0
53.454893560 7891.0
53.476626440 8003.0
53.498359320 8141.0
53.520092200 8078.0
53.541825080 8067.0
53.563557960 7993.0
53.585290840 7940.0
53.607023720 8030.0
53.628756600 8071.0
53.650489480 8084.0
53.672222360 7989.0
53.693955240 7939.0
53.715688120 8052.0
53.737421000 8136.0
53.759153880 7930.0
53.780886760 7907.0
53.802619640 7971.0
53.824352520 7871.0
53.846085400 8098.0
53.867818280 7974.0
53.889551160 7945.0
53.911284040 8011.0
53.933016920 7758.0
53.954749800 8015.0
53.976482680 7934.0
53.998215560 8000.0
54.019948440 8055.0
54.041681320 8075.0
54.063414200 7794.0
54.085147080 7982.0
54.106879960 7975.0
54.128612840 7826.0
54.150345720 7952.0
54.172078600 8039.0
54.193811480 7993.0
54.215544360 7975.0
54.237277240 7976.0
54.259010120 7940.0
54.280743000 7830.0
54.302475880 8048.0
54.324208760 7925.0
54.345941640 8002.0
54.367674520 8011.0
54.389407400 7975.0
54.411140280 8052.0
54.432873160 8173.0
54.454606040 7879.0
54.476338920 7769.0
54.498071800 7828.0
54.519804680 8050.0
54.541537560 8063.0
54.563270440 7978.0
54.585003320 7942.0
54.606736200 7985.0
54.628469080 7890.0
54.650201960 8025.0
54.671934840 8097.0
54.693667720 7949.0
54.715400600 8073.0
54.737133480 7866.0
54.758866360 7896.0
54.780599240 8035.0
54.802332120 7919.0
54.824065000 7931.0
54.845797880 8023.0
54.867530760 8029.0
54.889263640 8077.0
54.910996520 7800.0
54.932729400 7925.0
54.954462280 8152.0
54.976195160 7899.0
54.997928040 7843.0
55.019660920 8066.0
55.041393800 7995.0
55.063126680 7970.0
55.084859560 8133.0
55.106592440 7974.0
55.128325320 8041.0
55.150058200 8062.0
55.171791080 8082.0
55.193523960 7940.0
55.215256840 7975.0
55.236989720 7881.0
55.258722600 8092.0
55.280455480 8123.0
55.302188360 8044.0
55.323921240 7983.0
55.345654120 8061.0
55.367387000 8020.0
55.389119880 7953.0
55.410852760 8066.0
55.432585640 7978.0
55.454318520 7811.0
55.476051400 7939.0
55.497784280 7989.0
55.519517160 7884.0
55.541250040 8000.0
55.562982920 7907.0
55.584715800 8067.0
55.606448680 7919.0
55.628181560 7976.0
55.649914440 7978.0
55.671647320 8182.0
55.693380200 7949.0
55.715113080 8032.0
55.736845960 7979.0
55.758578840 7991.0
55.780311720 7824.0
55.802044600 7975.0
55.823777480 7878.0
55.845510360 7896.0
55.867243240 7982.0
55.888976120 7945.0
55.910709000 7709.0
55.932441880 7884.0
55.954174760 7872.0
55.975907640 7965.0
55.997640520 7954.0
56.019373400 7814.0
56.041106280 7955.0
56.062839160 8115.0
56.084572040 7882.0
56.106304920 7948.0
56.128037800 8101.0
56.149770680 8176.0
56.171503560 8001.0
56.193236440 7886.0
56.214969320 7911.0
56.236702200 7921.0
56.258435080 7848.0
56.280167960 7982.0
56.301900840 8088.0
56.323633720 8036.0
56.345366600 8043.0
56.367099480 7943.0
56.388832360 7847.0
56.410565240 7972.0
56.432298120 7835.0
56.454031000 7854.0
56.475763880 8086.0
56.497496760 8103.0
56.519229640 8188.0
56.540962520 8066.0
56.562695400 8019.0
56.584428280 7900.0
56.606161160 8168.0
56.627894040 7984.0
56.649626920 7937.0
56.671359800 7823.0
56.693092680 7959.0
56.714825560 7864.0
56.736558440 7894.0
56.758291320 7948.0
56.780024200 7820.0
56.801757080 7914.0
56.823489960 8081.0
56.845222840 7907.0
56.866955720 8081.0
56.888688600 8076.0
56.910421480 7991.0
56.932154360 7886.0
56.953887240 7977.0
56.975620120 7877.0
56.997353000 8189.0
57.019085880 7937.0
57.040818760 7918.0
57.062551640 8029.0
57.084284520 8077.0
57.106017400 8001.0
57.127750280 8043.0
57.149483160 8035.0
57.171216040 8134.0
57.192948920 8050.0
57.214681800 8185.0
57.236414680 8065.0
57.258147560 7966.0
57.279880440 7888.0
57.301613320 8199.0
57.323346200 8141.0
57.345079080 7949.0
57.366811960 7885.0
57.388544840 8137.0
57.410277720 8031.0
57.432010600 8047.0
57.453743480 7952.0
57.475476360 7947.0
57.497209240 7878.0
57.518942120 7976.0
57.540675000 8005.0
57.562407880 8130.0
57.584140760 8121.0
57.605873640 8272.0
57.627606520 8074.0
57.649339400 8107.0
57.671072280 7871.0
57.692805160 8071.0
57.714538040 8044.0
57.736270920 7995.0
57.758003800 7963.0
57.779736680 8096.0
57.801469560 7993.0
57.823202440 8081.0
57.844935320 8017.0
57.866668200 8128.0
57.888401080 7900.0
57.910133960 8162.0
57.931866840 8123.0
57.953599720 8214.0
57.975332600 7947.0
57.997065480 7875.0
58.018798360 8175.0
58.040531240 8026.0
58.062264120 7897.0
58.083997000 8139.0
58.105729880 8074.0
58.127462760 8105.0
58.149195640 7948.0
58.170928520 7952.0
58.192661400 8070.0
58.214394280 8053.0
58.236127160 8161.0
58.257860040 8163.0
58.279592920 8137.0
58.301325800 8108.0
58.323058680 8147.0
58.344791560 8007.0
58.366524440 8171.0
58.388257320 8257.0
58.409990200 8194.0
58.431723080 8221.0
58.453455960 7965.0
58.475188840 8157.0
58.496921720 8161.0
58.518654600 8249.0
58.540387480 8406.0
58.562120360 8297.0
58.583853240 8478.0
58.605586120 8497.0
58.627319000 8324.0
58.649051880 8429.0
58.670784760 8339.0
58.692517640 8614.0
58.714250520 8483.0
58.735983400 8659.0
58.757716280 8843.0
58.779449160 9079.0
58.801182040 9061.0
58.822914920 9069.0
58.844647800 9550.0
58.866380680 9921.0
58.888113560 10176.0
58.909846440 10724.0
58.931579320 11582.0
58.953312200 12880.0
58.975045080 14513.0
58.996777960 16745.0
59.018510840 19828.0
59.040243720 22831.0
59.061976600 24787.0
59.083709480 24322.0
59.105442360 20871.0
59.127175240 17817.0
59.148908120 16170.0
59.170641000 15801.0
59.192373880 16728.0
59.214106760 16945.0
59.235839640 17125.0
59.257572520 15363.0
59.279305400 13251.0
59.301038280 11557.0
59.322771160 10481.0
59.344504040 10093.0
59.366236920 9456.0
59.387969800 9178.0
59.409702680 8989.0
59.431435560 8870.0
59.453168440 8635.0
59.474901320 8666.0
59.496634200 8536.0
59.518367080 8394.0
59.540099960 8263.0
59.561832840 8379.0
59.583565720 8279.0
59.605298600 8280.0
59.627031480 8241.0
59.648764360 8393.0
59.670497240 8306.0
59.692230120 8322.0
59.713963000 8398.0
59.735695880 8321.0
59.757428760 8162.0
59.779161640 8007.0
59.800894520 8232.0
59.822627400 8247.0
59.844360280 7991.0
59.866093160 7989.0
59.887826040 8088.0
59.909558920 8154.0
59.931291800 8059.0
59.953024680 8168.0
59.974757560 7937.0
59.996490440 8044.0
60.018223320 8164.0
60.039956200 8009.0
60.061689080 8264.0
60.083421960 8082.0
60.105154840 7857.0
60.126887720 7902.0
60.148620600 8097.0
60.170353480 7996.0
60.192086360 7984.0
60.213819240 7951.0
60.235552120 8196.0
60.257285000 8035.0
60.279017880 8046.0
60.300750760 8063.0
60.322483640 8091.0
60.344216520 8133.0
60.365949400 8332.0
60.387682280 8128.0
60.409415160 7831.0
60.431148040 8103.0
60.452880920 8013.0
60.474613800 8005.0
60.496346680 8310.0
60.518079560 8109.0
60.539812440 8109.0
60.561545320 8176.0
60.583278200 8058.0
60.605011080 8008.0
60.626743960 8056.0
60.648476840 8034.0
60.670209720 7978.0
60.691942600 7905.0
60.713675480 8146.0
60.735408360 8207.0
60.757141240 7879.0
60.778874120 7891.0
60.800607000 8075.0
60.822339880 7922.0
60.844072760 8001.0
60.865805640 7942.0
60.887538520 8033.0
60.909271400 7925.0
60.931004280 8082.0
60.952737160 7878.0
60.974470040 8095.0
60.996202920 7901.0
61.017935800 8033.0
61.039668680 8221.0
61.061401560 7883.0
61.083134440 8084.0
61.104867320 7867.0
61.126600200 7990.0
61.148333080 7754.0
61.170065960 7822.0
61.191798840 7886.0
61.213531720 7863.0
61.235264600 7865.0
61.256997480 8096.0
61.278730360 7857.0
61.300463240 7946.0
61.322196120 7994.0
61.343929000 7849.0
61.365661880 7914.0
61.387394760 7992.0
61.409127640 8053.0
61.430860520 7916.0
61.452593400 8202.0
61.474326280 8034.0
61.496059160 7837.0
61.517792040 7954.0
61.539524920 7931.0
61.561257800 7912.0
61.582990680 8015.0
61.604723560 8107.0
61.626456440 8022.0
61.648189320 8090.0
61.669922200 8056.0
61.691655080 8244.0
61.713387960 7934.0
61.735120840 7873.0
61.756853720 7883.0
61.778586600 7857.0
61.800319480 7926.0
61.822052360 8040.0
61.843785240 7930.0
61.865518120 8105.0
61.887251000 8034.0
61.908983880 8110.0
61.930716760 8014.0
61.952449640 8007.0
61.974182520 7955.0
61.995915400 7830.0
62.017648280 8079.0
62.039381160 8114.0
62.061114040 7963.0
62.082846920 7807.0
62.104579800 7990.0
62.126312680 8002.0
62.148045560 7846.0
62.169778440 7886.0
62.191511320 8109.0
62.213244200 8093.0
62.234977080 7977.0
62.256709960 8094.0
62.278442840 7997.0
62.300175720 7970.0
62.321908600 7911.0
62.343641480 7853.0
62.365374360 7994.0
62.387107240 7915.0
62.408840120 7919.0
62.430573000 7893.0
62.452305880 7879.0
62.474038760 8093.0
62.495771640 8002.0
62.517504520 7970.0
62.539237400 8105.0
62.560970280 8017.0
62.582703160 8029.0
62.604436040 7984.0
62.626168920 7925.0
62.647901800 7926.0
62.669634680 7776.0
62.691367560 8017.0
62.713100440 7843.0
62.734833320 7891.0
62.756566200 7963.0
62.778299080 7998.0
62.800031960 7969.0
62.821764840 8072.0
62.843497720 7889.0
62.865230600 8082.0
62.886963480 7927.0
62.908696360 7965.0
62.930429240 7873.0
62.952162120 7976.0
62.973895000 8036.0
62.995627880 7980.0
63.017360760 7997.0
63.039093640 7985.0
63.060826520 8051.0
63.082559400 7946.0
63.104292280 7742.0
63.126025160 7818.0
63.147758040 8064.0
63.169490920 7978.0
63.191223800 7813.0
63.212956680 7977.0
63.234689560 7928.0
63.256422440 8005.0
63.278155320 7944.0
63.299888200 7893.0
63.321621080 8045.0
63.343353960 7990.0
63.365086840 7964.0
63.386819720 7851.0
63.408552600 8067.0
63.430285480 7908.0
63.452018360 8081.0
63.473751240 8094.0
63.495484120 7745.0
63.517217000 7988.0
63.538949880 8002.0
63.560682760 7944.0
63.582415640 8026.0
63.604148520 7781.0
63.625881400 7892.0
63.647614280 7971.0
63.669347160 8055.0
63.691080040 7934.0
63.712812920 7982.0
63.734545800 7870.0
63.756278680 7953.0
63.778011560 7915.0
63.799744440 7891.0
63.821477320 7916.0
63.843210200 8295.0
63.864943080 8042.0
63.886675960 7929.0
63.908408840 7810.0
63.930141720 8065.0
63.951874600 7863.0
63.973607480 7895.0
63.995340360 8192.0
64.017073240 8005.0
64.038806120 7982.0
64.060539000 8021.0
64.082271880 7927.0
64.104004760 8029.0
64.125737640 7989.0
64.147470520 8003.0
64.169203400 7944.0
64.190936280 7858.0
64.212669160 7863.0
64.234402040 8054.0
64.256134920 8041.0
64.277867800 8071.0
64.299600680 8073.0
64.321333560 7987.0
64.343066440 7903.0
64.364799320 8149.0
64.386532200 7976.0
64.408265080 8073.0
64.429997960 8051.0
64.451730840 8222.0
64.473463720 8070.0
64.495196600 7938.0
64.516929480 8119.0
64.538662360 8168.0
64.560395240 7952.0
64.582128120 7963.0
64.603861000 8032.0
64.625593880 8058.0
64.647326760 8016.0
64.669059640 8147.0
64.690792520 8016.0
64.712525400 7972.0
64.734258280 8204.0
64.755991160 8090.0
64.777724040 8278.0
64.799456920 8061.0
64.821189800 8072.0
64.842922680 8030.0
64.864655560 8221.0
64.886388440 8207.0
64.908121320 8141.0
64.929854200 8094.0
64.951587080 8260.0
64.973319960 8247.0
64.995052840 8214.0
65.016785720 8240.0
65.038518600 8217.0
65.060251480 8215.0
65.081984360 8241.0
65.103717240 8273.0
65.125450120 8048.0
65.147183000 8147.0
65.168915880 8133.0
65.190648760 8334.0
65.212381640 8094.0
65.234114520 8187.0
65.255847400 8190.0
65.277580280 7987.0
65.299313160 8124.0
65.321046040 8086.0
65.342778920 8194.0
65.364511800 8152.0
65.386244680 8169.0
65.407977560 8019.0
65.429710440 7981.0
65.451443320 8033.0
65.473176200 8221.0
65.494909080 8120.0
65.516641960 8093.0
65.538374840 8217.0
65.560107720 8091.0
65.581840600 8083.0
65.603573480 8119.0
65.625306360 8138.0
65.647039240 8214.0
65.668772120 8176.0
65.690505000 8081.0
65.712237880 8129.0
65.733970760 8320.0
65.755703640 8134.0
65.777436520 8119.0
65.799169400 8151.0
65.820902280 8105.0
65.842635160 8067.0
65.864368040 8094.0
65.886100920 8154.0
65.907833800 8260.0
65.929566680 7975.0
65.951299560 8329.0
65.973032440 8358.0
65.994765320 8430.0
66.016498200 8611.0
66.038231080 8324.0
66.059963960 8274.0
66.081696840 8353.0
66.103429720 8203.0
66.125162600 8405.0
66.146895480 8249.0
66.168628360 8440.0
66.190361240 8472.0
66.212094120 8381.0
66.233827000 8455.0
66.255559880 8573.0
66.277292760 8418.0
66.299025640 8548.0
66.320758520 8579.0
66.342491400 8659.0
66.364224280 8757.0
66.385957160 8926.0
66.407690040 8859.0
66.429422920 9330.0
66.451155800 9316.0
66.472888680 9384.0
66.494621560 9580.0
66.516354440 9877.0
66.538087320 9891.0
66.559820200 10168.0
66.581553080 10354.0
66.603285960 10606.0
66.625018840 11098.0
66.646751720 11676.0
66.668484600 11997.0
66.690217480 12649.0
66.711950360 13624.0
66.733683240 15004.0
66.755416120 17029.0
66.777149000 19836.0
66.798881880 23231.0
66.820614760 27709.0
66.842347640 34201.0
66.864080520 41618.0
66.885813400 47207.0
66.907546280 46939.0
66.929279160 40403.0
66.951012040 32745.0
66.972744920 27090.0
66.994477800 24767.0
67.016210680 25015.0
67.037943560 26351.0
67.059676440 28803.0
67.081409320 30061.0
67.103142200 27987.0
67.124875080 23750.0
67.146607960 19246.0
67.168340840 15919.0
67.190073720 13742.0
67.211806600 12658.0
67.233539480 11888.0
67.255272360 11096.0
67.277005240 10860.0
67.298738120 10268.0
67.320471000 9954.0
67.342203880 9878.0
67.363936760 9648.0
67.385669640 9347.0
67.407402520 9311.0
67.429135400 9060.0
67.450868280 8850.0
67.472601160 8714.0
67.494334040 8752.0
67.516066920 8408.0
67.537799800 8748.0
67.559532680 8494.0
67.581265560 8375.0
67.602998440 8613.0
67.624731320 8588.0
67.646464200 8433.0
67.668197080 8308.0
67.689929960 8532.0
67.711662840 8357.0
67.733395720 8299.0
67.755128600 8363.0
67.776861480 8487.0
67.798594360 8215.0
67.820327240 8087.0
67.842060120 8268.0
67.863793000 8192.0
67.885525880 8355.0
67.907258760 8143.0
67.928991640 8159.0
67.950724520 8318.0
67.972457400 8253.0
67.994190280 8182.0
68.015923160 8282.0
68.037656040 8294.0
68.059388920 8107.0
68.081121800 7896.0
68.102854680 7967.0
68.124587560 8084.0
68.146320440 8072.0
68.168053320 8170.0
68.189786200 8317.0
68.211519080 8120.0
68.233251960 8076.0
68.254984840 7997.0
68.276717720 8105.0
68.298450600 8238.0
68.320183480 8156.0
68.341916360 8135.0
68.363649240 8068.0
68.385382120 8089.0
68.407115000 7946.0
68.428847880 8019.0
68.450580760 8018.0
68.472313640 7962.0
68.494046520 7963.0
68.515779400 8171.0
68.537512280 8176.0
68.559245160 8054.0
68.580978040 8059.0
68.602710920 7957.0
68.624443800 7976.0
68.646176680 7821.0
68.667909560 8049.0
68.689642440 7979.0
68.711375320 8071.0
68.733108200 8048.0
68.754841080 8139.0
68.776573960 8066.0
68.798306840 7945.0
68.820039720 8003.0
68.841772600 7967.0
68.863505480 8101.0
68.885238360 7981.0
68.906971240 7956.0
68.928704120 7965.0
68.950437000 8034.0
68.972169880 7955.0
68.993902760 8034.0
69.015635640 7971.0
69.037368520 7930.0
69.059101400 7994.0
69.080834280 7947.0
69.102567160 8049.0
69.124300040 8013.0
69.146032920 7876.0
69.167765800 7886.0
69.189498680 8014.0
69.211231560 7944.0
69.232964440 8041.0
69.254697320 7886.0
69.276430200 8083.0
69.298163080 7755.0
69.319895960 7910.0
69.341628840 8070.0
69.363361720 7880.0
69.385094600 7861.0
69.406827480 7856.0
69.428560360 7970.0
69.450293240 7954.0
69.472026120 8030.0
69.493759000 8039.0
69.515491880 8010.0
69.537224760 7796.0
69.558957640 8016.0
69.580690520 7980.0
69.602423400 7973.0
69.624156280 7996.0
69.645889160 7879.0
69.667622040 7974.0
69.689354920 7825.0
69.711087800 8120.0
69.732820680 7958.0
69.754553560 7927.0
69.776286440 7849.0
69.798019320 7886.0
69.819752200 7901.0
69.841485080 7958.0
69.863217960 7904.0
69.884950840 7797.0
69.906683720 7980.0
69.928416600 7893.0
69.950149480 7805.0
69.971882360 7903.0
69.993615240 8022.0
70.015348120 7856.0
70.037081000 7962.0
70.058813880 7942.0
70.080546760 8004.0
70.102279640 7760.0
70.124012520 7979.0
70.145745400 7802.0
70.167478280 8171.0
70.189211160 7979.0
70.210944040 7769.0
70.232676920 7791.0
70.254409800 7944.0
70.276142680 7833.0
70.297875560 7941.0
70.319608440 7954.0
70.341341320 8016.0
70.363074200 7782.0
70.384807080 7770.0
70.406539960 7860.0
70.428272840 7846.0
70.450005720 7845.0
70.471738600 7766.0
70.493471480 7950.0
70.515204360 7822.0
70.536937240 7906.0
70.558670120 7847.0
70.580403000 7891.0
70.602135880 7853.0
70.623868760 7820.0
70.645601640 7809.0
70.667334520 8021.0
70.689067400 7904.0
70.710800280 8021.0
70.732533160 7868.0
70.754266040 7803.0
70.775998920 7727.0
70.797731800 7903.0
70.819464680 7808.0
70.841197560 8047.0
70.862930440 7780.0
70.884663320 7915.0
70.906396200 7737.0
70.928129080 7841.0
70.949861960 7710.0
70.971594840 8035.0
70.993327720 8018.0
71.015060600 7853.0
71.036793480 7734.0
71.058526360 7846.0
71.080259240 7842.0
71.101992120 8036.0
71.123725000 7945.0
71.145457880 7833.0
71.167190760 7742.0
71.188923640 7905.0
71.210656520 8118.0
71.232389400 7860.0
71.254122280 7976.0
71.275855160 8007.0
71.297588040 7917.0
71.319320920 7898.0
71.341053800 7951.0
71.362786680 7903.0
71.384519560 7831.0
71.406252440 7927.0
71.427985320 8005.0
71.449718200 7942.0
71.471451080 7739.0
71.493183960 7925.0
71.514916840 7896.0
71.536649720 7881.0
71.558382600 7699.0
71.580115480 8022.0
71.601848360 7748.0
71.623581240 7882.0
71.645314120 7937.0
71.667047000 7787.0
71.688779880 7875.0
71.710512760 8063.0
71.732245640 7810.0
71.753978520 8005.0
71.775711400 7867.0
71.797444280 8137.0
71.819177160 7910.0
71.840910040 7607.0
71.862642920 7597.0
71.884375800 8014.0
71.906108680 7850.0
71.927841560 7954.0
71.949574440 7896.0
71.971307320 7851.0
71.993040200 7913.0
72.014773080 7931.0
72.036505960 7947.0
72.058238840 7918.0
72.079971720 7949.0
72.101704600 7939.0
72.123437480 7820.0
72.145170360 7971.0
72.166903240 7913.0
72.188636120 7951.0
72.210369000 7889.0
72.232101880 7777.0
72.253834760 8105.0
72.275567640 7847.0
72.297300520 7860.0
72.319033400 7984.0
72.340766280 7883.0
72.362499160 7987.0
72.384232040 7849.0
72.405964920 7948.0
72.427697800 7825.0
72.449430680 7765.0
72.471163560 7873.0
72.492896440 7883.0
72.514629320 7831.0
72.536362200 8009.0
72.558095080 7830.0
72.579827960 7964.0
72.601560840 7936.0
72.623293720 7818.0
72.645026600 7834.0
72.666759480 8060.0
72.688492360 7926.0
72.710225240 8090.0
72.731958120 7995.0
72.753691000 7900.0
72.775423880 7950.0
72.797156760 7905.0
72.818889640 7965.0
72.840622520 7938.0
72.862355400 7868.0
72.884088280 7780.0
72.905821160 7923.0
72.927554040 7934.0
72.949286920 7999.0
72.971019800 7994.0
72.992752680 7914.0
73.014485560 8026.0
73.036218440 8052.0
73.057951320 7781.0
73.079684200 8043.0
73.101417080 8041.0
73.123149960 8095.0
73.144882840 7975.0
73.166615720 8149.0
73.188348600 7996.0
73.210081480 7976.0
73.231814360 8108.0
73.253547240 8008.0
73.275280120 7943.0
73.297013000 8036.0
73.318745880 8129.0
73.340478760 7932.0
73.362211640 7924.0
73.383944520 7935.0
73.405677400 8209.0
73.427410280 7965.0
73.449143160 8010.0
73.470876040 7957.0
73.492608920 8066.0
73.514341800 8083.0
73.536074680 8113.0
73.557807560 8105.0
73.579540440 8125.0
73.601273320 8215.0
73.623006200 8344.0
73.644739080 8085.0
73.666471960 8283.0
73.688204840 7981.0
73.709937720 8419.0
73.731670600 8349.0
73.753403480 8359.0
73.775136360 8399.0
73.796869240 8669.0
73.818602120 8645.0
73.840335000 8843.0
73.862067880 8930.0
73.883800760 8937.0
73.905533640 9063.0
73.927266520 9168.0
73.948999400 9393.0
73.970732280 9446.0
73.992465160 9709.0
74.014198040 9853.0
74.035930920 10109.0
74.057663800 10596.0
74.079396680 10930.0
74.101129560 11664.0
74.122862440 12285.0
74.144595320 13379.0
74.166328200 14666.0
74.188061080 17003.0
74.209793960 19827.0
74.231526840 23627.0
74.253259720 28087.0
74.274992600 31954.0
74.296725480 33154.0
74.318458360 30458.0
74.340191240 25155.0
74.361924120 21010.0
74.383657000 18551.0
74.405389880 17509.0
74.427122760 17671.0
74.448855640 18724.0
74.470588520 20208.0
74.492321400 21617.0
74.514054280 21567.0
74.535787160 19646.0
74.557520040 17054.0
74.579252920 14532.0
74.600985800 12754.0
74.622718680 11685.0
74.644451560 10894.0
74.666184440 10216.0
74.687917320 9724.0
74.709650200 9729.0
74.731383080 9285.0
74.753115960 9217.0
74.774848840 8959.0
74.796581720 8988.0
74.818314600 8746.0
74.840047480 8773.0
74.861780360 8750.0
74.883513240 8461.0
74.905246120 8385.0
74.926979000 8422.0
74.948711880 8229.0
74.970444760 8298.0
74.992177640 8231.0
75.013910520 8312.0
75.035643400 8373.0
75.057376280 8067.0
75.079109160 8153.0
75.100842040 8311.0
75.122574920 8028.0
75.144307800 8083.0
75.166040680 8058.0
75.187773560 8041.0
75.209506440 8016.0
75.231239320 8073.0
75.252972200 7862.0
75.274705080 7871.0
75.296437960 7927.0
75.318170840 7773.0
75.339903720 7939.0
75.361636600 7903.0
75.383369480 7833.0
75.405102360 7917.0
75.426835240 7978.0
75.448568120 8035.0
75.470301000 7765.0
75.492033880 7929.0
75.513766760 7968.0
75.535499640 7830.0
75.557232520 7869.0
75.578965400 7905.0
75.600698280 7796.0
75.622431160 7785.0
75.644164040 7842.0
75.665896920 7631.0
75.687629800 7792.0
75.709362680 7841.0
75.731095560 7807.0
75.752828440 7739.0
75.774561320 7886.0
75.796294200 7761.0
75.818027080 7934.0
75.839759960 7697.0
75.861492840 8011.0
75.883225720 7905.0
75.904958600 7798.0
75.926691480 7868.0
75.948424360 7679.0
75.970157240 7682.0
75.991890120 7641.0
76.013623000 7814.0
76.035355880 7772.0
76.057088760 7557.0
76.078821640 7777.0
76.100554520 7529.0
76.122287400 7787.0
76.144020280 7901.0
76.165753160 7614.0
76.187486040 7650.0
76.209218920 7871.0
76.230951800 7709.0
76.252684680 7610.0
76.274417560 7689.0
76.296150440 7780.0
76.317883320 7552.0
76.339616200 7740.0
76.361349080 7845.0
76.383081960 7693.0
76.404814840 7691.0
76.426547720 7649.0
76.448280600 7699.0
76.470013480 7559.0
76.491746360 7817.0
76.513479240 7699.0
76.535212120 7681.0
76.556945000 7620.0
76.578677880 7569.0
76.600410760 7619.0
76.622143640 7538.0
76.643876520 7749.0
76.665609400 7770.0
76.687342280 7653.0
76.709075160 7664.0
76.730808040 7697.0
76.752540920 7618.0
76.774273800 7746.0
76.796006680 7673.0
76.817739560 7723.0
76.839472440 7592.0
76.861205320 7751.0
76.882938200 7673.0
76.904671080 7571.0
76.926403960 7697.0
76.948136840 7751.0
76.969869720 7660.0
76.991602600 7625.0
77.013335480 7807.0
77.035068360 7689.0
77.056801240 7439.0
77.078534120 7684.0
77.100267000 7674.0
77.121999880 7673.0
77.143732760 7628.0
77.165465640 7609.0
77.187198520 7564.0
77.208931400 7545.0
77.230664280 7526.0
77.252397160 7562.0
77.274130040 7743.0
77.295862920 7696.0
77.317595800 7687.0
77.339328680 7509.0
77.361061560 7480.0
77.382794440 7710.0
77.404527320 7476.0
77.426260200 7559.0
77.447993080 7667.0
77.469725960 7725.0
77.491458840 7824.0
77.513191720 7666.0
77.534924600 7722.0
77.556657480 7503.0
77.578390360 7487.0
77.600123240 7524.0
77.621856120 7639.0
77.643589000 7727.0
77.665321880 7734.0
77.687054760 7723.0
77.708787640 7602.0
77.730520520 7605.0
77.752253400 7530.0
77.773986280 7625.0
77.795719160 7623.0
77.817452040 7651.0
77.839184920 7592.0
77.860917800 7509.0
77.882650680 7526.0
77.904383560 7475.0
77.926116440 7497.0
77.947849320 7645.0
77.969582200 7549.0
77.991315080 7589.0
78.013047960 7546.0
78.034780840 7736.0
78.056513720 7428.0
78.078246600 7498.0
78.099979480 7547.0
78.121712360 7599.0
78.143445240 7591.0
78.165178120 7796.0
78.186911000 7670.0
78.208643880 7683.0
78.230376760 7608.0
78.252109640 7586.0
78.273842520 7762.0
78.295575400 7531.0
78.317308280 7566.0
78.339041160 7554.0
78.360774040 7667.0
78.382506920 7565.0
78.404239800 7617.0
78.425972680 7501.0
78.447705560 7652.0
78.469438440 7442.0
78.491171320 7694.0
78.512904200 7712.0
78.534637080 7762.0
78.556369960 7727.0
78.578102840 7650.0
78.599835720 7632.0
78.621568600 7551.0
78.643301480 7530.0
78.665034360 7712.0
78.686767240 7359.0
78.708500120 7398.0
78.730233000 7554.0
78.751965880 7670.0
78.773698760 7696.0
78.795431640 7524.0
78.817164520 7544.0
78.838897400 7645.0
78.860630280 7470.0
78.882363160 7550.0
78.904096040 7732.0
78.925828920 7642.0
78.947561800 7481.0
78.969294680 7468.0
78.991027560 7485.0
79.012760440 7605.0
79.034493320 7460.0
79.056226200 7549.0
79.077959080 7652.0
79.099691960 7587.0
79.121424840 7634.0
79.143157720 7647.0
79.164890600 7416.0
79.186623480 7481.0
79.208356360 7763.0
79.230089240 7627.0
79.251822120 7580.0
79.273555000 7562.0
79.295287880 7421.0
79.317020760 7446.0
79.338753640 7698.0
79.360486520 7588.0
79.382219400 7550.0
79.403952280 7538.0
79.425685160 7628.0
79.447418040 7587.0
79.469150920 7614.0
79.490883800 7567.0
79.512616680 7698.0
79.534349560 7664.0
79.556082440 7797.0
79.577815320 7519.0
79.599548200 7728.0
79.621281080 7673.0
79.643013960 7523.0
79.664746840 7613.0
79.686479720 7676.0
79.708212600 7760.0
79.729945480 7549.0
79.751678360 7574.0
79.773411240 7721.0
79.795144120 7481.0
79.816877000 7554.0
79.838609880 7622.0
79.860342760 7475.0
79.882075640 7598.0
79.903808520 7546.0
79.925541400 7544.0
79.947274280 7354.0
79.969007160 7588.0
79.990740040 7560.0
80.012472920 7512.0
80.034205800 7483.0
80.055938680 7653.0
80.077671560 7532.0
80.099404440 7653.0
80.121137320 7481.0
80.142870200 7408.0
80.164603080 7380.0
80.186335960 7640.0
80.208068840 7524.0
80.229801720 7662.0
80.251534600 7570.0
80.273267480 7465.0
80.295000360 7587.0
80.316733240 7340.0
80.338466120 7440.0
80.360199000 7422.0
80.381931880 7587.0
80.403664760 7459.0
80.425397640 7389.0
80.447130520 7565.0
80.468863400 7507.0
80.490596280 7436.0
80.512329160 7579.0
80.534062040 7285.0
80.555794920 7610.0
80.577527800 7511.0
80.599260680 7651.0
80.620993560 7497.0
80.642726440 7438.0
80.664459320 7582.0
80.686192200 7362.0
80.707925080 7458.0
80.729657960 7389.0
80.751390840 7465.0
80.773123720 7588.0
80.794856600 7486.0
80.816589480 7328.0
80.838322360 7537.0
80.860055240 7492.0
80.881788120 7394.0
80.903521000 7578.0
80.925253880 7484.0
80.946986760 7441.0
80.968719640 7650.0
80.990452520 7541.0
81.012185400 7471.0
81.033918280 7390.0
81.055651160 7479.0
81.077384040 7453.0
81.099116920 7460.0
81.120849800 7628.0
81.142582680 7621.0
81.164315560 7500.0
81.186048440 7505.0
81.207781320 7463.0
81.229514200 7612.0
81.251247080 7539.0
81.272979960 7503.0
81.294712840 7484.0
81.316445720 7410.0
81.338178600 7501.0
81.359911480 7508.0
81.381644360 7363.0
81.403377240 7477.0
81.425110120 7388.0
81.446843000 7428.0
81.468575880 7474.0
81.490308760 7417.0
81.512041640 7531.0
81.533774520 7446.0
81.555507400 7384.0
81.577240280 7390.0
81.598973160 7453.0
81.620706040 7618.0
81.642438920 7628.0
81.664171800 7470.0
81.685904680 7464.0
81.707637560 7486.0
81.729370440 7351.0
81.751103320 7382.0
81.772836200 7556.0
81.794569080 7490.0
81.816301960 7455.0
81.838034840 7560.0
81.859767720 7393.0
81.881500600 7318.0
81.903233480 7323.0
81.924966360 7423.0
81.946699240 7495.0
81.968432120 7496.0
81.990165000 7431.0
82.011897880 7411.0
82.033630760 7402.0
82.055363640 7575.0
82.077096520 7474.0
82.098829400 7539.0
82.120562280 7426.0
82.142295160 7358.0
82.164028040 7312.0
82.185760920 7450.0
82.207493800 7344.0
82.229226680 7452.0
82.250959560 7411.0
82.272692440 7314.0
82.294425320 7437.0
82.316158200 7532.0
82.337891080 7277.0
82.359623960 7276.0
82.381356840 7389.0
82.403089720 7449.0
82.424822600 7315.0
82.446555480 7486.0
82.468288360 7339.0
82.490021240 7500.0
82.511754120 7499.0
82.533487000 7574.0
82.555219880 7482.0
82.576952760 7375.0
82.598685640 7493.0
82.620418520 7366.0
82.642151400 7335.0
82.663884280 7342.0
82.685617160 7298.0
82.707350040 7188.0
82.729082920 7479.0
82.750815800 7278.0
82.772548680 7349.0
82.794281560 7286.0
82.816014440 7429.0
82.837747320 7419.0
82.859480200 7322.0
82.881213080 7265.0
82.902945960 7351.0
82.924678840 7254.0
82.946411720 7349.0
82.968144600 7427.0
82.989877480 7293.0
83.011610360 7318.0
83.033343240 7231.0
83.055076120 7491.0
83.076809000 7315.0
83.098541880 7486.0
83.120274760 7500.0
83.142007640 7420.0
83.163740520 7362.0
83.185473400 7400.0
83.207206280 7496.0
83.228939160 7414.0
83.250672040 7438.0
83.272404920 7313.0
83.294137800 7328.0
83.315870680 7420.0
83.337603560 7493.0
83.359336440 7311.0
83.381069320 7400.0
83.402802200 7213.0
83.424535080 7373.0
83.446267960 7357.0
83.468000840 7509.0
83.489733720 7287.0
83.511466600 7461.0
83.533199480 7409.0
83.554932360 7236.0
83.576665240 7424.0
83.598398120 7244.0
83.620131000 7172.0
83.641863880 7510.0
83.663596760 7325.0
83.685329640 7307.0
83.707062520 7124.0
83.728795400 7382.0
83.750528280 7188.0
83.772261160 7300.0
83.793994040 7162.0
83.815726920 7286.0
83.837459800 7397.0
83.859192680 7356.0
83.880925560 7403.0
83.902658440 7326.0
83.924391320 7373.0
83.946124200 7428.0
83.967857080 7313.0
83.989589960 7419.0
84.011322840 7347.0
84.033055720 7277.0
84.054788600 7456.0
84.076521480 7405.0
84.098254360 7188.0
84.119987240 7319.0
84.141720120 7453.0
84.163453000 7398.0
84.185185880 7440.0
84.206918760 7414.0
84.228651640 7355.0
84.250384520 7388.0
84.272117400 7467.0
84.293850280 7591.0
84.315583160 7247.0
84.337316040 7413.0
84.359048920 7432.0
84.380781800 7207.0
84.402514680 7209.0
84.424247560 7084.0
84.445980440 7329.0
84.467713320 7438.0
84.489446200 7401.0
84.511179080 7336.0
84.532911960 7182.0
84.554644840 7396.0
84.576377720 7355.0
84.598110600 7317.0
84.619843480 7335.0
84.641576360 7464.0
84.663309240 7421.0
84.685042120 7386.0
84.706775000 7226.0
84.728507880 7162.0
84.750240760 7302.0
84.771973640 7393.0
84.793706520 7392.0
84.815439400 7467.0
84.837172280 7450.0
84.858905160 7335.0
84.880638040 7323.0
84.902370920 7386.0
84.924103800 7409.0
84.945836680 7303.0
84.967569560 7215.0
84.989302440 7247.0
85.011035320 7266.0
85.032768200 7359.0
85.054501080 7343.0
85.076233960 7331.0
85.097966840 7305.0
85.119699720 7486.0
85.141432600 7273.0
85.163165480 7334.0
85.184898360 7316.0
85.206631240 7326.0
85.228364120 7408.0
85.250097000 7364.0
85.271829880 7276.0
85.293562760 7442.0
85.315295640 7363.0
85.337028520 7181.0
85.358761400 7230.0
85.380494280 7454.0
85.402227160 7279.0
85.423960040 7208.0
85.445692920 7369.0
85.467425800 7276.0
85.489158680 7337.0
85.510891560 7396.0
85.532624440 7176.0
85.554357320 7297.0
85.576090200 7178.0
85.597823080 7267.0
85.619555960 7235.0
85.641288840 7309.0
85.663021720 7359.0
85.684754600 7209.0
85.706487480 7402.0
85.728220360 7324.0
85.749953240 7299.0
85.771686120 7447.0
85.793419000 7665.0
85.815151880 7337.0
85.836884760 7333.0
85.858617640 7259.0
85.880350520 7210.0
85.902083400 7458.0
85.923816280 7506.0
85.945549160 7272.0
85.967282040 7352.0
85.989014920 7337.0
86.010747800 7163.0
86.032480680 7179.0
86.054213560 7171.0
86.075946440 7199.0
86.097679320 7306.0
86.119412200 7396.0
86.141145080 7275.0
86.162877960 7276.0
86.184610840 7181.0
86.206343720 7136.0
86.228076600 7347.0
86.249809480 7233.0
86.271542360 7227.0
86.293275240 7204.0
86.315008120 7201.0
86.336741000 7244.0
86.358473880 7283.0
86.380206760 7376.0
86.401939640 7250.0
86.423672520 7362.0
86.445405400 7305.0
86.467138280 7324.0
86.488871160 7227.0
86.510604040 6980.0
86.532336920 7315.0
86.554069800 7329.0
86.575802680 7246.0
86.597535560 7221.0
86.619268440 7384.0
86.641001320 7333.0
86.662734200 7233.0
86.684467080 7267.0
86.706199960 7281.0
86.727932840 7140.0
86.749665720 7170.0
86.771398600 7338.0
86.793131480 7175.0
86.814864360 7405.0
86.836597240 7261.0
86.858330120 7232.0
86.880063000 7130.0
86.901795880 7218.0
86.923528760 7305.0
86.945261640 7235.0
86.966994520 7159.0
86.988727400 7102.0
87.010460280 7343.0
87.032193160 7374.0
87.053926040 7255.0
87.075658920 7243.0
87.097391800 7304.0
87.119124680 7288.0
87.140857560 7269.0
87.162590440 7240.0
87.184323320 7203.0
87.206056200 7172.0
87.227789080 7139.0
87.249521960 7191.0
87.271254840 7244.0
87.292987720 7243.0
87.314720600 7075.0
87.336453480 7202.0
87.358186360 7151.0
87.379919240 7206.0
87.401652120 7237.0
87.423385000 7170.0
87.445117880 7123.0
87.466850760 7258.0
87.488583640 7272.0
87.510316520 7311.0
87.532049400 7219.0
87.553782280 7242.0
87.575515160 7316.0
87.597248040 7276.0
87.618980920 7340.0
87.640713800 7407.0
87.662446680 7184.0
87.684179560 7340.0
87.705912440 7286.0
87.727645320 7235.0
87.749378200 7348.0
87.771111080 7339.0
87.792843960 7443.0
87.814576840 7425.0
87.836309720 7447.0
87.858042600 7330.0
87.879775480 7428.0
87.901508360 7258.0
87.923241240 7646.0
87.944974120 7435.0
87.966707000 7530.0
87.988439880 7705.0
88.010172760 7460.0
88.031905640 7512.0
88.053638520 7583.0
88.075371400 7580.0
88.097104280 7482.0
88.118837160 7678.0
88.140570040 7673.0
88.162302920 7859.0
88.184035800 7782.0
88.205768680 7957.0
88.227501560 8218.0
88.249234440 8291.0
88.270967320 8534.0
88.292700200 8801.0
88.314433080 9206.0
88.336165960 9764.0
88.357898840 10602.0
88.379631720 11699.0
88.401364600 12659.0
88.423097480 13731.0
88.444830360 13498.0
88.466563240 12568.0
88.488296120 11318.0
88.510029000 10478.0
88.531761880 9775.0
88.553494760 9339.0
88.575227640 9092.0
88.596960520 9233.0
88.618693400 9356.0
88.640426280 9550.0
88.662159160 10049.0
88.683892040 10402.0
88.705624920 10775.0
88.727357800 10369.0
88.749090680 9981.0
88.770823560 9328.0
88.792556440 8604.0
88.814289320 8318.0
88.836022200 8199.0
88.857755080 8101.0
88.879487960 7699.0
88.901220840 7669.0
88.922953720 7407.0
88.944686600 7486.0
88.966419480 7375.0
88.988152360 7321.0
89.009885240 7528.0
89.031618120 7455.0
89.053351000 7253.0
89.075083880 7468.0
89.096816760 7528.0
89.118549640 7210.0
89.140282520 7264.0
89.162015400 7253.0
89.183748280 7356.0
89.205481160 7237.0
89.227214040 7287.0
89.248946920 7338.0
89.270679800 7348.0
89.292412680 7216.0
89.314145560 7247.0
89.335878440 6975.0
89.357611320 7168.0
89.379344200 7384.0
89.401077080 7380.0
89.422809960 7383.0
89.444542840 7358.0
89.466275720 7280.0
89.488008600 7171.0
89.509741480 7232.0
89.531474360 7281.0
89.553207240 7277.0
89.574940120 7127.0
89.596673000 7181.0
89.618405880 7038.0
89.640138760 7292.0
89.661871640 7238.0
89.683604520 7098.0
89.705337400 7342.0
89.727070280 7175.0
89.748803160 7187.0
89.770536040 7156.0
89.792268920 7035.0
89.814001800 7034.0
89.835734680 7196.0
89.857467560 7152.0
89.879200440 7203.0
